0	426081	15917520	-0.172	-0.141	0.941	
1	982850	15453984	-0.172	-0.141	0.941	
2	1389554	15192580	-0.176	-0.164	0.930	
3	1658657	15048880	-0.176	-0.164	0.930	
4	1840551	14969148	-0.176	-0.160	0.938	
5	1965705	14924080	-0.176	-0.160	0.938	
6	2052845	14897180	-0.176	-0.160	0.938	
7	2114224	14881276	-0.172	-0.141	0.934	
8	2158419	14873916	-0.172	-0.141	0.934	
9	2190473	14869548	-0.172	-0.141	0.934	
10	2213725	14866396	-0.168	-0.141	0.926	
11	2230702	14864548	-0.168	-0.141	0.926	
12	2243234	14863744	-0.176	-0.152	0.934	
13	2252018	14861284	-0.176	-0.152	0.934	
14	2258705	14861680	-0.176	-0.152	0.934	
15	2263282	14859928	-0.145	-0.188	0.926	
16	2265854	14856484	-0.145	-0.188	0.926	
17	2267421	14855036	-0.152	-0.180	0.949	
18	2268228	14853564	-0.152	-0.180	0.949	
19	2269084	14854564	-0.152	-0.180	0.949	
20	2269873	14855152	-0.160	-0.145	0.953	
21	2270767	14856364	-0.160	-0.145	0.953	
22	2271744	14857588	-0.191	-0.133	0.945	
23	2273459	14861516	-0.191	-0.133	0.945	
24	2275098	14862928	-0.191	-0.133	0.945	
25	2277480	14867540	-0.180	-0.164	0.930	
26	2279748	14869464	-0.180	-0.164	0.930	
27	2282475	14873568	-0.164	-0.195	0.914	
28	2284612	14873936	-0.164	-0.195	0.914	
29	2286122	14873564	-0.164	-0.195	0.914	
30	2287355	14873968	-0.164	-0.164	0.926	
31	2288592	14875216	-0.164	-0.164	0.926	
32	2289667	14875804	-0.152	-0.156	0.945	
33	2290692	14876680	-0.152	-0.156	0.945	
34	2292094	14879212	-0.152	-0.156	0.945	
35	2294330	14883952	-0.137	-0.207	0.922	
36	2296933	14887656	-0.137	-0.207	0.922	
37	2299371	14889600	-0.168	-0.199	0.926	
38	2301813	14892052	-0.168	-0.199	0.926	
39	2303692	14892244	-0.168	-0.199	0.926	
40	2305206	14892660	-0.180	-0.184	0.945	
41	2307134	14895832	-0.180	-0.184	0.945	
42	2309550	14899712	-0.188	-0.184	0.953	
43	2311485	14900204	-0.188	-0.184	0.953	
44	2315185	14909200	-0.188	-0.184	0.953	
45	2319769	14916436	-0.176	-0.176	0.949	
46	2325166	14924272	-0.176	-0.176	0.949	
47	2330947	14931204	-0.184	-0.195	0.934	
48	2336185	14934812	-0.184	-0.195	0.934	
49	2341077	14938668	-0.184	-0.195	0.934	
50	2345799	14942880	-0.191	-0.191	0.957	
51	2350908	14949148	-0.191	-0.191	0.957	
52	2355913	14953840	-0.191	-0.211	0.953	
53	2361399	14960772	-0.191	-0.211	0.953	
54	2367072	14967004	-0.191	-0.211	0.953	
55	2373098	14974088	-0.191	-0.219	0.957	
56	2379676	14982324	-0.191	-0.219	0.957	
57	2385863	14987336	-0.191	-0.219	0.957	
58	2392348	14994716	-0.188	-0.219	0.941	
59	2399108	15002300	-0.188	-0.219	0.941	
60	2406376	15011092	-0.207	-0.199	0.949	
61	2413187	15016532	-0.207	-0.199	0.949	
62	2419551	15021556	-0.207	-0.199	0.949	
63	2426089	15028616	-0.230	-0.184	0.961	
64	2432929	15036364	-0.230	-0.184	0.961	
65	2440083	15044460	-0.180	-0.238	0.957	
66	2447168	15051336	-0.180	-0.238	0.957	
67	2454163	15058060	-0.180	-0.238	0.957	
68	2460133	15060956	-0.172	-0.266	0.949	
69	2465376	15064020	-0.172	-0.266	0.949	
70	2469320	15064064	-0.211	-0.254	0.957	
71	2471961	15062796	-0.211	-0.254	0.957	
72	2474051	15063236	-0.211	-0.254	0.957	
73	2475604	15063176	-0.242	-0.219	0.969	
74	2477009	15064136	-0.242	-0.219	0.969	
75	2479038	15068040	-0.227	-0.207	0.941	
76	2481065	15070060	-0.227	-0.207	0.941	
77	2482921	15071404	-0.227	-0.207	0.941	
78	2484796	15073336	-0.254	-0.309	0.891	
79	2486321	15073808	-0.254	-0.309	0.891	
80	2487591	15074316	-0.285	-0.313	0.914	
81	2488341	15073504	-0.285	-0.313	0.914	
82	2489317	15075160	-0.285	-0.313	0.914	
83	2491322	15080252	-0.305	-0.262	0.926	
84	2494965	15088808	-0.332	-0.254	0.922	
85	2497339	15087376	-0.332	-0.254	0.922	
86	2505780	15114016	-0.332	-0.254	0.922	
87	2518999	15141568	-0.297	-0.246	0.859	
88	2535097	15166304	-0.297	-0.246	0.859	
89	2553871	15193108	-0.285	-0.316	0.859	
90	2573786	15216444	-0.285	-0.316	0.859	
91	2594113	15238008	-0.285	-0.316	0.859	
92	2614188	15257328	-0.285	-0.355	0.859	
93	2634098	15276740	-0.285	-0.355	0.859	
94	2653315	15293880	-0.285	-0.355	0.859	
95	2671749	15309964	-0.313	-0.395	0.852	
96	2689164	15324324	-0.313	-0.395	0.852	
97	2704581	15333744	-0.301	-0.379	0.840	
98	2718091	15341536	-0.301	-0.379	0.840	
99	2729767	15347708	-0.301	-0.379	0.840	
100	2739873	15353104	-0.285	-0.375	0.805	
101	2748626	15357800	-0.285	-0.375	0.805	
102	2756258	15362068	-0.297	-0.367	0.777	
103	2762506	15364164	-0.297	-0.367	0.777	
104	2768049	15367592	-0.297	-0.367	0.777	
105	2773260	15371808	-0.270	-0.348	0.785	
106	2778564	15377388	-0.270	-0.348	0.785	
107	2784005	15383240	-0.297	-0.324	0.789	
108	2790171	15391584	-0.297	-0.324	0.789	
109	2797694	15403176	-0.297	-0.324	0.789	
110	2805362	15411280	-0.313	-0.379	0.785	
111	2813493	15420800	-0.313	-0.379	0.785	
112	2821843	15429808	-0.059	-0.332	0.816	
113	2831106	15441808	-0.059	-0.332	0.816	
114	2841020	15453676	-0.059	-0.332	0.816	
115	2851045	15464032	-0.195	-0.426	0.777	
116	2861353	15475192	-0.195	-0.426	0.777	
117	2871471	15484740	-0.246	-0.430	0.773	
118	2880454	15490316	-0.246	-0.430	0.773	
119	2888115	15494012	-0.246	-0.430	0.773	
120	2893669	15493244	-0.281	-0.449	0.758	
121	2897581	15492232	-0.281	-0.449	0.758	
122	2899676	15488876	-0.289	-0.441	0.758	
123	2900034	15484020	-0.289	-0.441	0.758	
124	2899250	15479812	-0.289	-0.441	0.758	
125	2897100	15473564	-0.266	-0.477	0.766	
126	2894178	15468324	-0.266	-0.477	0.766	
127	2888638	15454932	-0.258	-0.492	0.809	
128	2882644	15447576	-0.258	-0.492	0.809	
129	2876334	15440316	-0.258	-0.492	0.809	
130	2869230	15430832	-0.250	-0.516	0.805	
131	2861219	15420100	-0.250	-0.516	0.805	
132	2852692	15410024	-0.262	-0.465	0.809	
133	2843567	15399104	-0.262	-0.465	0.809	
134	2834571	15390496	-0.262	-0.465	0.809	
135	2825637	15381748	-0.238	-0.516	0.816	
136	2817588	15376356	-0.238	-0.516	0.816	
137	2810241	15371112	-0.211	-0.469	0.883	
138	2804070	15368472	-0.211	-0.469	0.883	
139	2800076	15371008	-0.211	-0.469	0.883	
140	2797672	15373372	-0.227	-0.500	0.906	
141	2797230	15378816	-0.227	-0.500	0.906	
142	2797824	15382520	-0.227	-0.500	0.906	
143	2799347	15386828	-0.191	-0.516	0.895	
144	2800722	15387760	-0.191	-0.516	0.895	
145	2802254	15389764	-0.141	-0.523	0.863	
146	2803308	15389384	-0.141	-0.523	0.863	
147	2803578	15387300	-0.141	-0.523	0.863	
148	2803707	15387008	-0.125	-0.461	0.906	
149	2802767	15382860	-0.125	-0.461	0.906	
150	2800847	15378000	-0.133	-0.457	0.934	
151	2798021	15372456	-0.133	-0.457	0.934	
152	2795590	15371212	-0.133	-0.457	0.934	
153	2794872	15375632	-0.102	-0.551	0.883	
154	2796864	15385752	-0.102	-0.551	0.883	
155	2800516	15394384	-0.086	-0.547	0.863	
156	2804167	15398032	-0.086	-0.547	0.863	
157	2806587	15396760	-0.086	-0.547	0.863	
158	2807493	15393124	-0.059	-0.480	0.887	
159	2807891	15392000	-0.059	-0.480	0.887	
160	2807704	15390056	0.004	-0.480	0.852	
161	2804766	15378864	0.004	-0.480	0.852	
162	2796273	15353708	0.004	-0.480	0.852	
163	2782294	15323272	0.031	-0.473	0.816	
164	2765095	15296412	0.031	-0.473	0.816	
165	2746784	15274764	0.125	-0.484	0.824	
166	2728584	15256896	0.125	-0.484	0.824	
167	2710428	15238872	0.125	-0.484	0.824	
168	2692693	15222400	0.086	-0.504	0.828	
169	2668302	15178044	0.086	-0.504	0.828	
170	2640207	15138836	0.129	-0.500	0.805	
171	2610906	15105916	0.129	-0.500	0.805	
172	2581937	15077944	0.129	-0.500	0.805	
173	2553736	15052048	0.188	-0.496	0.742	
174	2527358	15031136	0.188	-0.496	0.742	
175	2502946	15012624	0.234	-0.414	0.719	
176	2480837	14997424	0.234	-0.414	0.719	
177	2461619	14986880	0.234	-0.414	0.719	
178	2445658	14980688	0.223	-0.387	0.734	
179	2432948	14977732	0.223	-0.387	0.734	
180	2423177	14976776	0.277	-0.422	0.730	
181	2416045	14977564	0.277	-0.422	0.730	
182	2410756	14977804	0.277	-0.422	0.730	
183	2407031	14978768	0.305	-0.418	0.742	
184	2404544	14979996	0.305	-0.418	0.742	
185	2403102	14981688	0.305	-0.418	0.742	
186	2401817	14980876	0.281	-0.434	0.781	
187	2400901	14981068	0.281	-0.434	0.781	
188	2400322	14981500	0.250	-0.395	0.805	
189	2399972	14981836	0.250	-0.395	0.805	
190	2399693	14981768	0.250	-0.395	0.805	
191	2399427	14981544	0.262	-0.402	0.801	
192	2399818	14983904	0.262	-0.402	0.801	
193	2400621	14985944	0.328	-0.426	0.805	
194	2401886	14988596	0.328	-0.426	0.805	
195	2403715	14992116	0.328	-0.426	0.805	
196	2405409	14993404	0.320	-0.434	0.820	
197	2406350	14992088	0.320	-0.434	0.820	
198	2406468	14989736	0.348	-0.445	0.828	
199	2406186	14988252	0.348	-0.445	0.828	
200	2406432	14990084	0.348	-0.445	0.828	
201	2407325	14992916	0.328	-0.438	0.813	
202	2408752	14995948	0.328	-0.438	0.813	
203	2388530	14910776	0.402	-0.457	0.766	
204	2348457	14811152	0.402	-0.457	0.766	
205	2300451	14739348	0.402	-0.457	0.766	
206	2250589	14683916	0.461	-0.465	0.746	
207	2200084	14631484	0.461	-0.465	0.746	
208	2149647	14581248	0.477	-0.473	0.738	
209	2102072	14542260	0.477	-0.473	0.738	
210	2048937	14472444	0.488	-0.473	0.715	
211	1988907	14391732	0.488	-0.473	0.715	
212	1924268	14313264	0.488	-0.473	0.715	
213	1855977	14234016	0.527	-0.496	0.672	
214	1785512	14157032	0.527	-0.496	0.672	
215	1715009	14086412	0.492	-0.484	0.660	
216	1642410	14007528	0.492	-0.484	0.660	
217	1569811	13934928	0.492	-0.484	0.660	
218	1500615	13875940	0.473	-0.488	0.648	
219	1436914	13828724	0.473	-0.488	0.648	
220	1379771	13791256	0.480	-0.484	0.645	
221	1324997	13743588	0.480	-0.484	0.645	
222	1266111	13672368	0.480	-0.484	0.645	
223	1195065	13564840	0.484	-0.492	0.664	
224	1106292	13422888	0.484	-0.492	0.664	
225	998066	13256300	0.488	-0.504	0.672	
226	882883	13120248	0.488	-0.504	0.672	
227	792157	13102892	0.488	-0.504	0.672	
228	876759	13713480	0.539	-0.547	0.676	
229	1200902	14756244	0.539	-0.547	0.676	
230	1701666	15786872	0.547	-0.547	0.680	
231	2292172	16646604	0.547	-0.547	0.680	
232	2893751	504184	0.547	-0.547	0.680	
233	3473279	1017560	0.488	-0.508	0.703	
234	4040310	1547100	0.488	-0.508	0.703	
235	4604012	2100816	0.520	-0.508	0.715	
236	5157266	2622724	0.520	-0.508	0.715	
237	5678027	3046008	0.520	-0.508	0.715	
238	6147590	3361976	0.555	-0.523	0.684	
239	6555502	3584936	0.555	-0.523	0.684	
240	6899873	3738684	0.555	-0.523	0.684	
241	7185352	3847488	0.535	-0.508	0.699	
242	7421110	3934080	0.535	-0.508	0.699	
243	7615854	4005784	0.512	-0.523	0.684	
244	7776836	4065480	0.512	-0.523	0.684	
245	7910221	4116072	0.512	-0.523	0.684	
246	8020013	4155088	0.500	-0.512	0.668	
247	8107010	4173700	0.500	-0.512	0.668	
248	3983105	4194304	0.520	-0.520	0.645	
249	890176	4194304	0.520	-0.520	0.645	
250	15347696	4194304	0.520	-0.520	0.645	
251	13607924	4194304	0.531	-0.512	0.656	
252	12303095	4194304	0.531	-0.512	0.656	
253	11324473	4194304	0.547	-0.512	0.668	
254	10590506	4194304	0.547	-0.512	0.668	
255	10040031	4194304	0.547	-0.512	0.668	
256	9627175	4194304	0.566	-0.500	0.656	
257	9317533	4194304	0.566	-0.500	0.656	
258	9085301	4194304	0.547	-0.504	0.660	
259	8911127	4194304	0.547	-0.504	0.660	
260	8780497	4194304	0.547	-0.504	0.660	
261	8682524	4194304	0.539	-0.508	0.656	
262	8609045	4194304	0.539	-0.508	0.656	
263	8553935	4194304	0.539	-0.516	0.656	
264	8512603	4194304	0.539	-0.516	0.656	
265	8481604	4194304	0.539	-0.516	0.656	
266	8458355	4194304	0.531	-0.512	0.664	
267	8440918	4194304	0.531	-0.512	0.664	
268	8427840	4194304	0.527	-0.500	0.656	
269	8418032	4194304	0.527	-0.500	0.656	
270	8410676	4194304	0.527	-0.500	0.656	
271	8405159	4194304	0.535	-0.508	0.648	
272	8401021	4194304	0.535	-0.508	0.648	
273	8397917	4194304	0.531	-0.496	0.645	
274	8395589	4194304	0.531	-0.496	0.645	
275	8393843	4194304	0.531	-0.496	0.645	
276	12561848	4094344	0.484	-0.461	0.656	
277	15652033	3951068	0.484	-0.461	0.656	
278	1139377	3738756	0.477	-0.461	0.660	
279	2751500	3393568	0.477	-0.461	0.660	
280	3778195	2663976	0.477	-0.461	0.660	
281	4230149	1391708	0.477	-0.445	0.668	
282	4239867	74720	0.477	-0.445	0.668	
283	3965698	15726104	0.477	-0.445	0.668	
284	3545675	14868520	0.465	-0.426	0.688	
285	3073808	14241120	0.465	-0.426	0.688	
286	2617665	13832148	0.402	-0.387	0.738	
287	2211196	13574704	0.402	-0.387	0.738	
288	1865413	13410976	0.402	-0.387	0.738	
289	1578620	13301156	0.383	-0.375	0.816	
290	1344233	13223984	0.383	-0.375	0.816	
291	1154825	13169516	0.355	-0.348	0.840	
292	1002718	13129312	0.355	-0.348	0.840	
293	879984	13094696	0.355	-0.348	0.840	
294	780616	13065424	0.328	-0.332	0.879	
295	696187	13025812	0.328	-0.332	0.879	
296	626562	13000600	0.262	-0.316	0.902	
297	569623	12981720	0.262	-0.316	0.902	
298	523347	12967432	0.262	-0.316	0.902	
299	485709	12955708	0.223	-0.316	0.914	
300	455406	12947412	0.223	-0.316	0.914	
301	431193	12941468	0.156	-0.301	0.906	
302	411728	12936248	0.156	-0.301	0.906	
303	395712	12930576	0.156	-0.301	0.906	
304	382555	12925996	0.105	-0.285	0.887	
305	372164	12923904	0.105	-0.285	0.887	
306	363525	12920520	0.066	-0.262	0.910	
307	356288	12917492	0.066	-0.262	0.910	
308	349819	12913324	0.066	-0.262	0.910	
309	344277	12910564	0.027	-0.227	0.895	
310	339274	12907180	0.027	-0.227	0.895	
311	334986	12905036	0.031	-0.223	0.879	
312	331107	12902384	0.031	-0.223	0.879	
313	327256	12898616	0.031	-0.223	0.879	
314	323942	12896912	0.023	-0.191	0.871	
315	320976	12894992	0.023	-0.191	0.871	
316	318898	12895576	0.016	-0.152	0.879	
317	316897	12893808	0.016	-0.152	0.879	
318	314576	12890528	0.016	-0.152	0.879	
319	312018	12887256	-0.004	-0.121	0.914	
320	308218	12879732	-0.004	-0.121	0.914	
321	303839	12873616	-0.063	-0.102	0.938	
322	299035	12867536	-0.063	-0.102	0.938	
323	294232	12862736	-0.063	-0.102	0.938	
324	290108	12860648	-0.051	-0.078	0.930	
325	286683	12859320	-0.051	-0.078	0.930	
326	283714	12857720	-0.074	-0.102	0.918	
327	281087	12856120	-0.074	-0.102	0.918	
328	279391	12857216	-0.074	-0.102	0.918	
329	278441	12858504	-0.145	-0.141	0.910	
330	278272	12860680	-0.145	-0.141	0.910	
331	278077	12860404	-0.145	-0.141	0.910	
332	277130	12857204	-0.211	-0.176	0.914	
333	274686	12850268	-0.250	-0.172	0.941	
334	265833	12822188	-0.250	-0.172	0.941	
335	258555	12819636	-0.285	-0.176	0.953	
336	252785	12818388	-0.285	-0.176	0.953	
337	245596	12806944	-0.285	-0.176	0.953	
338	239642	12804692	-0.316	-0.172	0.949	
339	234801	12803192	-0.316	-0.172	0.949	
340	231214	12803368	-0.297	-0.156	0.941	
341	228445	12803052	-0.297	-0.156	0.941	
342	227156	12806204	-0.297	-0.156	0.941	
343	226615	12807904	-0.258	-0.152	0.914	
344	227094	12811444	-0.258	-0.152	0.914	
345	228145	12814212	-0.293	-0.145	0.914	
346	229998	12818472	-0.293	-0.145	0.914	
347	232438	12822672	-0.293	-0.145	0.914	
348	235342	12826968	-0.258	-0.160	0.910	
349	238397	12830476	-0.258	-0.160	0.910	
350	241907	12835352	-0.258	-0.188	0.910	
351	245641	12839756	-0.258	-0.188	0.910	
352	249646	12844576	-0.258	-0.188	0.910	
353	254069	12850252	-0.250	-0.195	0.879	
354	259590	12859068	-0.250	-0.195	0.879	
355	265324	12865440	-0.277	-0.199	0.875	
356	271994	12874916	-0.277	-0.199	0.875	
357	279443	12884704	-0.277	-0.199	0.875	
358	287069	12892860	-0.266	-0.215	0.871	
359	294966	12901572	-0.266	-0.215	0.871	
360	303374	12911512	-0.266	-0.215	0.871	
361	313491	12926756	-0.504	-0.465	0.742	
362	325380	12943960	-0.504	-0.465	0.742	
363	337071	12955056	-0.480	-0.324	0.742	
364	347399	12961296	-0.480	-0.324	0.742	
365	356382	12966244	-0.480	-0.324	0.742	
366	364628	12972280	-0.391	-0.230	0.715	
367	372440	12978788	-0.391	-0.230	0.715	
368	380110	12986032	-0.375	-0.309	0.746	
369	386873	12990076	-0.375	-0.309	0.746	
370	393019	12994372	-0.375	-0.309	0.746	
371	398443	12997628	-0.371	-0.301	0.730	
372	403152	13000192	-0.371	-0.301	0.730	
373	406884	13000992	-0.348	-0.320	0.703	
374	409324	12999556	-0.348	-0.320	0.703	
375	410027	12995048	-0.348	-0.320	0.703	
376	408643	12987404	-0.375	-0.293	0.711	
377	404723	12975876	-0.375	-0.293	0.711	
378	399562	12966992	-0.453	-0.324	0.773	
379	390425	12945928	-0.453	-0.324	0.773	
380	380721	12934524	-0.453	-0.324	0.773	
381	370737	12923700	-0.375	-0.344	0.809	
382	360550	12912904	-0.375	-0.344	0.809	
383	350371	12902748	-0.332	-0.309	0.805	
384	340635	12894340	-0.332	-0.309	0.805	
385	331795	12888188	-0.332	-0.309	0.805	
386	323794	12882704	-0.383	-0.293	0.828	
387	316634	12878068	-0.383	-0.293	0.828	
388	310871	12876496	-0.367	-0.285	0.871	
389	306391	12875864	-0.367	-0.285	0.871	
390	303235	12876680	-0.367	-0.285	0.871	
391	301643	12879780	-0.355	-0.258	0.902	
392	301716	12884848	-0.355	-0.258	0.902	
393	303303	12890976	-0.348	-0.258	0.922	
394	306249	12898000	-0.348	-0.258	0.922	
395	310574	12906464	-0.348	-0.258	0.922	
396	316088	12915544	-0.336	-0.250	0.914	
397	321634	12921184	-0.336	-0.250	0.914	
398	326934	12925748	-0.328	-0.273	1.188	
399	331908	12929744	-0.328	-0.273	1.188	
400	337463	12937040	-0.328	-0.273	1.188	
401	343031	12942648	-0.273	-0.535	1.418	
402	348731	12948744	-0.273	-0.535	1.418	
403	354476	12954624	-0.035	-0.500	1.273	
404	360754	12962500	-0.035	-0.500	1.273	
405	367582	12970980	-0.035	-0.500	1.273	
406	374944	12979944	-0.074	-0.375	0.984	
407	382736	12989024	-0.074	-0.375	0.984	
408	390894	12998280	-0.074	-0.375	0.984	
409	399042	13006400	-0.191	-0.488	0.883	
410	407669	13016464	-0.191	-0.488	0.883	
411	416679	13026624	-0.512	-0.555	0.715	
412	425836	13036220	-0.512	-0.555	0.715	
413	435004	13045420	-0.512	-0.555	0.715	
414	443677	13052608	-0.672	-0.496	0.680	
415	452112	13060332	-0.672	-0.496	0.680	
416	459517	13064644	-0.512	-0.441	0.715	
417	466013	13068416	-0.512	-0.441	0.715	
418	472178	13073588	-0.512	-0.441	0.715	
419	477206	13075204	-0.430	-0.395	0.824	
420	482365	13080756	-0.430	-0.395	0.824	
421	484882	13075348	-0.395	-0.367	0.859	
422	487098	13076660	-0.395	-0.367	0.859	
423	488965	13077480	-0.395	-0.367	0.859	
424	490717	13078888	-0.391	-0.406	0.797	
425	491452	13076572	-0.391	-0.406	0.797	
426	491294	13073732	-0.395	-0.395	0.797	
427	490221	13069916	-0.395	-0.395	0.797	
428	488151	13064856	-0.395	-0.395	0.797	
429	485490	13060420	-0.359	-0.375	0.797	
430	482133	13054976	-0.359	-0.375	0.797	
431	478037	13048664	-0.352	-0.355	0.813	
432	473695	13043584	-0.352	-0.355	0.813	
433	469311	13039072	-0.352	-0.355	0.813	
434	465172	13035668	-0.344	-0.348	0.836	
435	460685	13030136	-0.344	-0.348	0.836	
436	456165	13025520	-0.336	-0.348	0.840	
437	451437	13020168	-0.336	-0.348	0.840	
438	447088	13016956	-0.336	-0.348	0.840	
439	443093	13014020	-0.332	-0.328	0.859	
440	439502	13011644	-0.332	-0.328	0.859	
441	436307	13009636	-0.344	-0.324	0.852	
442	433306	13007216	-0.344	-0.324	0.852	
443	430600	13005396	-0.344	-0.324	0.852	
444	428326	13004416	-0.324	-0.320	0.832	
445	426329	13003252	-0.324	-0.320	0.832	
446	424633	13002460	-0.277	-0.301	0.855	
447	423228	13001928	-0.277	-0.301	0.855	
448	422245	13002208	-0.277	-0.301	0.855	
449	421402	13001788	-0.273	-0.293	0.871	
450	420519	13000784	-0.273	-0.293	0.871	
451	419815	13000616	-0.273	-0.293	0.871	
452	418990	12999428	-0.309	-0.285	0.855	
453	418500	12999944	-0.309	-0.285	0.855	
454	418022	12999500	-0.348	-0.285	0.820	
455	417344	12998224	-0.348	-0.285	0.820	
456	416461	12996724	-0.348	-0.285	0.820	
457	415045	12993712	-0.316	-0.285	0.848	
458	413081	12990104	-0.316	-0.285	0.848	
459	409990	12983632	-0.285	-0.266	0.891	
460	408137	12985492	-0.285	-0.266	0.891	
461	406774	12985600	-0.250	-0.246	0.926	
462	407134	12991128	-0.250	-0.246	0.926	
463	405777	12984620	-0.203	-0.238	0.977	
464	404863	12985036	-0.203	-0.238	0.977	
465	404450	12986124	-0.203	-0.238	0.977	
466	404272	12986652	-0.203	-0.238	0.988	
467	404020	12986176	-0.203	-0.238	0.988	
468	403704	12985668	-0.203	-0.238	0.988	
469	403167	12984468	-0.195	-0.246	0.965	
470	402707	12984240	-0.195	-0.246	0.965	
471	403428	12988504	-0.191	-0.266	0.961	
472	406441	12998392	-0.191	-0.266	0.961	
473	411050	13007792	-0.191	-0.266	0.961	
474	417055	13017984	-0.133	-0.336	0.957	
475	423711	13026592	-0.133	-0.336	0.957	
476	431295	13036960	-0.145	-0.410	0.863	
477	439073	13045320	-0.145	-0.410	0.863	
478	446055	13049916	-0.145	-0.410	0.863	
479	450383	13046280	-0.172	-0.449	0.574	
480	451336	13037108	-0.172	-0.449	0.574	
481	449043	13025076	-0.180	-0.648	0.363	
482	444749	13014780	-0.180	-0.648	0.363	
483	440719	13011544	-0.180	-0.648	0.363	
484	438197	13013544	-0.109	-0.742	0.355	
485	437697	13019112	-0.109	-0.742	0.355	
486	439145	13026404	-0.105	-0.797	0.375	
487	442345	13034860	-0.105	-0.797	0.375	
488	446644	13042456	-0.105	-0.797	0.375	
489	451391	13048544	-0.043	-0.813	0.395	
490	456007	13052768	-0.043	-0.813	0.395	
491	459920	13054572	0.008	-0.793	0.656	
492	462898	13054744	0.008	-0.793	0.656	
493	465416	13055884	0.008	-0.793	0.656	
494	467562	13056912	0.105	-0.746	0.750	
495	468671	13054912	0.105	-0.746	0.750	
496	468814	13052156	0.105	-0.746	0.750	
497	468359	13049908	0.203	-0.668	0.629	
498	468616	13052300	0.203	-0.668	0.629	
499	471926	13064768	0.105	-0.648	0.520	
500	479154	13083752	0.105	-0.648	0.520	
501	490044	13105628	0.105	-0.648	0.520	
502	504388	13130332	0.285	-0.648	0.488	
503	521228	13154660	0.285	-0.648	0.488	
504	540811	13182472	0.484	-0.684	0.531	
505	560232	13201408	0.484	-0.684	0.531	
506	581383	13227748	0.617	-0.707	0.590	
507	603650	13253364	0.617	-0.707	0.590	
508	627342	13281332	0.617	-0.707	0.590	
509	652609	13311324	0.742	-0.703	0.582	
510	679713	13343940	0.742	-0.703	0.582	
511	708333	13377108	0.742	-0.703	0.582	
512	737226	13406820	1.051	-0.836	0.668	
513	764642	13429804	1.051	-0.836	0.668	
514	789229	13445904	1.105	-0.906	0.781	
515	809412	13452876	1.105	-0.906	0.781	
516	824339	13452032	1.105	-0.906	0.781	
517	834257	13446924	1.039	-0.930	0.684	
518	840339	13441500	1.039	-0.930	0.684	
519	844320	13439176	1.055	-0.863	0.563	
520	847811	13441196	1.055	-0.863	0.563	
521	851585	13445820	1.055	-0.863	0.563	
522	856915	13455820	0.902	-0.789	0.480	
523	863278	13465280	0.902	-0.789	0.480	
524	870032	13473208	0.691	-0.531	0.625	
525	876668	13479488	0.691	-0.531	0.625	
526	882917	13484576	0.691	-0.531	0.625	
527	890198	13494956	0.793	-0.672	0.938	
528	897894	13503896	0.793	-0.672	0.938	
529	905476	13511136	0.813	-0.582	1.047	
530	912074	13514780	0.813	-0.582	1.047	
531	919413	13524344	0.813	-0.582	1.047	
532	934337	13562024	0.691	-0.680	0.988	
533	955365	13601364	0.691	-0.680	0.988	
534	983837	13652168	0.492	-0.762	0.598	
535	1020878	13714916	0.492	-0.762	0.598	
536	1065612	13782728	0.492	-0.762	0.598	
537	1112168	13834748	0.527	-0.805	0.336	
538	1155513	13868460	0.527	-0.805	0.336	
539	1194066	13892640	0.449	-1.004	0.039	
540	1227897	13912304	0.449	-1.004	0.039	
541	1259042	13935392	0.449	-1.004	0.039	
542	1285290	13946948	0.355	-1.508	0.074	
543	1304171	13943728	0.355	-1.508	0.074	
544	1315918	13934072	0.355	-1.508	0.074	
545	1320793	13918332	0.297	-1.414	0.176	
546	1321388	13906088	0.297	-1.414	0.176	
547	1317211	13887592	0.324	-1.160	0.098	
548	1312193	13880052	0.324	-1.160	0.098	
549	1306053	13870548	0.359	-0.957	0.023	
550	1299799	13863952	0.359	-0.957	0.023	
551	1293895	13859096	0.359	-0.957	0.023	
552	1287981	13853152	0.262	-0.879	0.016	
553	1281842	13846340	0.262	-0.879	0.016	
554	1275025	13837488	0.301	-0.926	0.059	
555	1267977	13829748	0.301	-0.926	0.059	
556	1260027	13819092	0.301	-0.926	0.059	
557	1251980	13810752	0.316	-1.000	0.109	
558	1243394	13800548	0.316	-1.000	0.109	
559	1234772	13791820	0.316	-1.000	0.109	
560	1226590	13784956	0.246	-1.000	0.109	
561	1219107	13779572	0.246	-1.000	0.109	
562	1211934	13773328	0.176	-0.965	0.078	
563	1205498	13769104	0.176	-0.965	0.078	
564	1199330	13763740	0.176	-0.965	0.078	
565	1192984	13756860	0.219	-0.973	0.074	
566	1186242	13748928	0.219	-0.973	0.074	
567	1179564	13742444	0.246	-0.992	0.105	
568	1172895	13735800	0.246	-0.992	0.105	
569	1166178	13728940	0.246	-0.992	0.105	
570	1159203	13721192	0.266	-0.988	0.102	
571	1152229	13714220	0.266	-0.988	0.102	
572	1145368	13707700	0.273	-0.977	0.090	
573	1138956	13702632	0.273	-0.977	0.090	
574	1132923	13697736	0.273	-0.977	0.090	
575	1127479	13694060	0.191	-0.988	0.074	
576	1122710	13691316	0.191	-0.988	0.074	
577	1118600	13689184	0.172	-1.008	0.047	
578	1114954	13686928	0.172	-1.008	0.047	
579	1111599	13684448	0.172	-1.008	0.047	
580	1108371	13681600	0.070	-0.992	0.047	
581	1105722	13680688	0.070	-0.992	0.047	
582	1103527	13679856	0.031	-0.980	-0.008	
583	1096727	13659240	0.031	-0.980	-0.008	
584	1092977	13664640	0.363	-1.055	0.152	
585	1090094	13664360	0.363	-1.055	0.152	
586	1087965	13664492	0.301	-0.957	0.234	
587	1086721	13665904	0.301	-0.957	0.234	
588	1086970	13670632	0.301	-0.957	0.234	
589	1085612	13664452	0.398	-0.961	0.219	
590	1084280	13663196	0.398	-0.961	0.219	
591	1082636	13660616	0.395	-0.969	0.227	
592	1080854	13658420	0.395	-0.969	0.227	
593	1079248	13657344	0.395	-0.969	0.227	
594	1078141	13657732	0.102	-0.832	0.047	
595	1077847	13659880	0.102	-0.832	0.047	
596	1078079	13661688	0.047	-0.922	-0.020	
597	1077781	13659800	0.047	-0.922	-0.020	
598	1077298	13658764	0.047	-0.922	-0.020	
599	1075780	13654140	0.191	-1.129	0.004	
600	1073731	13650496	0.191	-1.129	0.004	
601	1070335	13643060	0.324	-1.090	-0.031	
602	1066311	13637152	0.324	-1.090	-0.031	
603	1062737	13634928	0.324	-1.090	-0.031	
604	1058080	13627024	0.438	-0.941	-0.023	
605	1053252	13621680	0.438	-0.941	-0.023	
606	1048402	13616764	0.477	-0.820	0.008	
607	1043411	13611352	0.477	-0.820	0.008	
608	1038665	13607340	0.477	-0.820	0.008	
609	1034208	13603752	0.465	-0.785	0.188	
610	1030686	13603032	0.465	-0.785	0.188	
611	1029153	13607468	0.449	-0.797	0.371	
612	1032789	13626612	0.449	-0.797	0.371	
613	1039525	13642648	0.449	-0.797	0.371	
614	1046340	13649700	0.531	-0.883	0.520	
615	1052448	13653684	0.531	-0.883	0.520	
616	1057190	13654328	0.574	-0.934	0.488	
617	1060334	13652680	0.574	-0.934	0.488	
618	1062287	13651060	0.574	-0.934	0.488	
619	1063655	13650672	0.586	-0.965	0.324	
620	1064536	13650092	0.586	-0.965	0.324	
621	1065991	13653268	0.586	-0.965	0.324	
622	1068534	13659076	0.461	-0.984	0.137	
623	1072610	13667752	0.461	-0.984	0.137	
624	1077866	13676548	0.289	-0.988	-0.020	
625	1083926	13685020	0.289	-0.988	-0.020	
626	1090637	13693684	0.289	-0.988	-0.020	
627	1098154	13703620	0.098	-0.980	-0.105	
628	1104602	13706860	0.098	-0.980	-0.105	
629	1109380	13706628	0.043	-1.020	-0.145	
630	1112858	13706204	0.043	-1.020	-0.145	
631	1112546	13694524	0.168	-1.156	-0.051	
632	1111135	13689816	0.152	-1.156	-0.051	
633	1109798	13688700	0.152	-1.156	-0.051	
634	1109282	13690648	0.082	-0.953	-0.031	
635	1109358	13692500	0.082	-0.953	-0.031	
636	1109359	13692276	0.082	-0.953	-0.031	
637	1108968	13690708	0.266	-0.953	-0.047	
638	1108027	13688116	0.266	-0.953	-0.047	
639	1105542	13681000	0.391	-0.980	0.078	
640	1102011	13674332	0.391	-0.980	0.078	
641	1098221	13669764	0.391	-0.980	0.078	
642	1095252	13669260	0.324	-1.008	0.148	
643	1093794	13672332	0.324	-1.008	0.148	
644	1093654	13676148	0.336	-0.852	0.148	
645	1094393	13679524	0.336	-0.852	0.148	
646	1095744	13682712	0.336	-0.852	0.148	
647	1098247	13688668	0.246	-0.859	0.098	
648	1101857	13695600	0.246	-0.859	0.098	
649	1105782	13700472	0.332	-0.984	0.086	
650	1109069	13701844	0.332	-0.984	0.086	
651	1111881	13703232	0.332	-0.984	0.086	
652	1114090	13703632	0.395	-0.930	0.113	
653	1116399	13706240	0.395	-0.930	0.113	
654	1118658	13708348	0.344	-0.922	0.109	
655	1121320	13712220	0.344	-0.922	0.109	
656	1124990	13718912	0.344	-0.922	0.109	
657	1129642	13726512	0.328	-0.965	0.105	
658	1134492	13731956	0.328	-0.965	0.105	
659	1138849	13734832	0.266	-0.949	0.043	
660	1143213	13739220	0.266	-0.949	0.043	
661	1146915	13740936	0.266	-0.949	0.043	
662	1150424	13743864	0.289	-0.949	0.027	
663	1153955	13747460	0.289	-0.949	0.027	
664	1157246	13750032	0.289	-0.949	0.027	
665	1160811	13754420	0.285	-0.949	0.098	
666	1164331	13757804	0.285	-0.949	0.098	
667	1167613	13760372	0.289	-0.926	0.160	
668	1171049	13764272	0.289	-0.926	0.160	
669	1174507	13767796	0.289	-0.926	0.160	
670	1178091	13771756	0.313	-0.957	0.078	
671	1183036	13780784	0.313	-0.957	0.078	
672	1189317	13791072	0.199	-0.961	0.020	
673	1194312	13792212	0.199	-0.961	0.020	
674	1199634	13798512	0.273	-0.953	0.047	
675	1204941	13803776	0.273	-0.953	0.047	
676	1210375	13809592	0.273	-0.953	0.047	
677	1215723	13814680	0.250	-0.941	0.148	
678	1220884	13819280	0.250	-0.941	0.148	
679	1226439	13826016	0.250	-0.941	0.148	
680	1232302	13832804	0.285	-0.969	0.238	
681	1238024	13838104	0.285	-0.969	0.238	
682	1244257	13845868	0.258	-0.930	0.180	
683	1250746	13853128	0.258	-0.930	0.180	
684	1257277	13859784	0.258	-0.930	0.180	
685	1263461	13864928	0.313	-0.945	0.125	
686	1268997	13868520	0.313	-0.945	0.125	
687	1274682	13874652	0.273	-1.016	0.141	
688	1280306	13880092	0.273	-1.016	0.141	
689	1285642	13884564	0.273	-1.016	0.141	
690	1291074	13890284	0.270	-1.043	0.133	
691	1296892	13897260	0.270	-1.043	0.133	
692	1303147	13904824	0.227	-1.027	0.125	
693	1309473	13911364	0.227	-1.027	0.125	
694	1315867	13917964	0.227	-1.027	0.125	
695	1322011	13923356	0.234	-1.020	0.094	
696	1327211	13925724	0.234	-1.020	0.094	
697	1331249	13926276	0.184	-1.020	0.086	
698	1334768	13928240	0.184	-1.020	0.086	
699	1337458	13928440	0.184	-1.020	0.086	
700	1339355	13927960	0.141	-0.941	0.125	
701	1340603	13927260	0.141	-0.941	0.125	
702	1341121	13925588	0.203	-0.953	0.172	
703	1340776	13922656	0.203	-0.953	0.172	
704	1339592	13918952	0.203	-0.953	0.172	
705	1337921	13915820	0.238	-0.938	0.254	
706	1335673	13911844	0.238	-0.938	0.254	
707	1333021	13907980	0.238	-0.922	0.297	
708	1328297	13897040	0.238	-0.922	0.297	
709	1324376	13895528	0.238	-0.922	0.297	
710	1320962	13893632	0.195	-0.910	0.289	
711	1317362	13889476	0.195	-0.910	0.289	
712	1313732	13885756	0.227	-0.914	0.316	
713	1309804	13880932	0.227	-0.914	0.316	
714	1306300	13878700	0.133	-0.922	0.262	
715	1300643	13866584	0.133	-0.922	0.262	
716	1295342	13862352	0.133	-0.922	0.262	
717	1289257	13853916	0.000	-0.961	0.238	
718	1282138	13843696	0.000	-0.961	0.238	
719	1274137	13833048	-0.027	-0.977	0.090	
720	1266581	13826828	-0.027	-0.977	0.090	
721	1257844	13814548	-0.027	-0.977	0.090	
722	1249139	13805936	-0.039	-0.988	0.082	
723	1240574	13797792	-0.039	-0.988	0.082	
724	1232964	13793048	-0.039	-0.988	0.082	
725	1225555	13786240	-0.035	-0.992	0.098	
726	1218765	13781308	-0.035	-0.992	0.098	
727	1212870	13778100	-0.031	-0.969	0.117	
728	1206950	13772104	-0.031	-0.969	0.117	
729	1201400	13767664	-0.031	-0.969	0.117	
730	1196455	13764532	-0.066	-0.973	0.105	
731	1192524	13763644	-0.066	-0.973	0.105	
732	1189275	13762440	0.016	-0.980	0.191	
733	1186561	13761332	0.016	-0.980	0.191	
734	1184820	13762512	0.016	-0.980	0.191	
735	1183677	13763160	0.031	-0.949	0.227	
736	1183105	13764304	0.031	-0.949	0.227	
737	1182721	13764484	0.012	-0.941	0.262	
738	1182595	13765132	0.012	-0.941	0.262	
739	1182500	13765128	0.012	-0.941	0.262	
740	1182355	13764832	-0.051	-0.961	0.215	
741	1182452	13765656	-0.051	-0.961	0.215	
742	1182554	13765772	-0.094	-0.977	0.152	
743	1182639	13765808	-0.094	-0.977	0.152	
744	1183296	13768180	-0.094	-0.977	0.152	
745	1183911	13768668	-0.109	-0.984	0.141	
746	1184826	13770484	-0.109	-0.984	0.141	
747	1186008	13772468	-0.121	-0.973	0.117	
748	1187448	13774680	-0.121	-0.973	0.117	
749	1189403	13778180	-0.121	-0.973	0.117	
750	1191156	13779328	-0.105	-0.980	0.137	
751	1192626	13779948	-0.105	-0.980	0.137	
752	1193854	13780452	-0.152	-0.965	0.129	
753	1194448	13779144	-0.152	-0.965	0.129	
754	1195220	13780448	-0.152	-0.965	0.129	
755	1195921	13780936	-0.168	-0.957	0.164	
756	1196985	13783092	-0.168	-0.957	0.164	
757	1196866	13779424	-0.117	-0.984	0.133	
758	1197267	13781384	-0.117	-0.984	0.133	
759	1198206	13783936	-0.117	-0.984	0.133	
760	1199472	13786184	-0.148	-0.988	0.113	
761	1200739	13787452	-0.148	-0.988	0.113	
762	1202134	13789232	-0.160	-0.984	0.059	
763	1203136	13789056	-0.160	-0.984	0.059	
764	1203765	13788564	-0.160	-0.984	0.059	
765	1203903	13787232	-0.152	-0.961	0.102	
766	1203968	13787076	-0.152	-0.961	0.102	
767	1203847	13786396	-0.145	-0.973	0.082	
768	1203729	13786288	-0.145	-0.973	0.082	
769	1203537	13785876	-0.145	-0.973	0.082	
770	1203382	13785832	-0.156	-0.973	0.047	
771	1203248	13785760	-0.156	-0.973	0.047	
772	1202830	13784488	-0.156	-0.973	0.047	
773	1202299	13783620	-0.137	-0.957	0.063	
774	1202652	13786624	-0.137	-0.957	0.063	
775	1202813	13786208	-0.117	-0.957	0.098	
776	1203294	13787652	-0.117	-0.957	0.098	
777	1204024	13789128	-0.117	-0.957	0.098	
778	1204901	13790444	-0.133	-0.984	0.109	
779	1205926	13791916	-0.133	-0.984	0.109	
780	1207168	13793808	-0.121	-0.980	0.113	
781	1208390	13794968	-0.121	-0.980	0.113	
782	1209102	13794152	-0.121	-0.980	0.113	
783	1209450	13793408	-0.094	-0.973	0.133	
784	1210083	13794896	-0.094	-0.973	0.133	
785	1210612	13795112	-0.070	-0.984	0.141	
786	1211201	13795880	-0.070	-0.984	0.141	
787	1211473	13795204	-0.070	-0.984	0.141	
788	1211417	13794164	-0.094	-0.988	0.141	
789	1211104	13793080	-0.094	-0.988	0.141	
790	1210836	13792944	-0.113	-0.965	0.133	
791	1210493	13792376	-0.113	-0.965	0.133	
792	1209816	13790700	-0.113	-0.965	0.133	
793	1208657	13788092	-0.094	-0.969	0.113	
794	1207658	13787576	-0.094	-0.969	0.113	
795	1206121	13784424	-0.090	-0.988	0.109	
796	1204556	13782776	-0.090	-0.988	0.109	
797	1203168	13781916	-0.090	-0.988	0.109	
798	1202577	13783716	-0.063	-1.004	0.105	
799	1200385	13776724	-0.063	-1.004	0.105	
800	1198630	13776280	-0.055	-0.992	0.113	
801	1197303	13776236	-0.055	-0.992	0.113	
802	1196053	13775216	-0.055	-0.992	0.113	
803	1194814	13774012	-0.055	-0.988	0.141	
804	1193530	13772592	-0.055	-0.988	0.141	
805	1192671	13773008	-0.094	-0.992	0.090	
806	1191676	13771604	-0.094	-0.992	0.090	
807	1190632	13770412	-0.094	-0.992	0.090	
808	1189696	13769800	-0.227	-0.969	0.086	
809	1188829	13769140	-0.227	-0.969	0.086	
810	1187277	13765536	-0.254	-0.910	0.320	
811	1185590	13763444	-0.254	-0.910	0.320	
812	1183316	13759408	-0.254	-0.910	0.320	
813	1181251	13757968	-0.059	-0.973	0.219	
814	1178546	13753344	-0.059	-0.973	0.219	
815	1175431	13749000	-0.059	-0.973	0.219	
816	1171433	13742352	0.004	-1.031	0.078	
817	1167116	13737080	0.004	-1.031	0.078	
818	1162974	13733460	0.219	-1.008	-0.184	
819	1160132	13734520	0.219	-1.008	-0.184	
820	1157682	13733244	0.219	-1.008	-0.184	
821	1156035	13734008	0.094	-0.945	-0.086	
822	1155561	13737052	0.094	-0.945	-0.086	
823	1156171	13740916	-0.043	-0.977	0.008	
824	1157826	13745704	-0.043	-0.977	0.008	
825	1159687	13748184	-0.043	-0.977	0.008	
826	1161782	13750980	-0.074	-1.000	0.094	
827	1163699	13752364	-0.074	-1.000	0.094	
828	1165740	13754776	-0.078	-0.992	0.078	
829	1167340	13755052	-0.078	-0.992	0.078	
830	1168280	13754012	-0.078	-0.992	0.078	
831	1168413	13751724	-0.078	-0.977	0.059	
832	1163661	13732320	-0.094	-0.969	0.059	
833	1162089	13740288	-0.094	-0.969	0.059	
834	1161991	13744612	-0.094	-0.969	0.059	
835	1163008	13748972	-0.102	-0.969	0.063	
836	1164753	13752900	-0.102	-0.969	0.063	
837	1167666	13759320	-0.102	-0.988	0.051	
838	1171386	13765460	-0.102	-0.988	0.051	
839	1175919	13772432	-0.102	-0.988	0.051	
840	1181627	13781664	-0.086	-1.004	0.027	
841	1186167	13782700	-0.086	-1.004	0.027	
842	1191818	13791684	-0.078	-1.000	0.023	
843	1197920	13799140	-0.078	-1.000	0.023	
844	1204222	13806040	-0.051	-0.977	0.039	
845	1210073	13810540	-0.051	-0.977	0.039	
846	1216043	13816868	-0.051	-0.977	0.039	
847	1221748	13821776	-0.059	-0.961	0.063	
848	1227300	13826868	-0.059	-0.961	0.063	
849	1233297	13834200	-0.008	-0.996	0.094	
850	1238594	13837400	-0.008	-0.996	0.094	
851	1244228	13844044	-0.008	-0.996	0.094	
852	1249929	13849944	-0.016	-1.020	0.117	
853	1256061	13857372	-0.016	-1.020	0.117	
854	1262401	13864336	-0.016	-1.020	0.117	
855	1268957	13871540	-0.043	-0.934	0.152	
856	1275126	13876548	-0.043	-0.934	0.152	
857	1280731	13880460	-0.016	-0.938	0.121	
858	1285553	13882932	-0.016	-0.938	0.121	
859	1290009	13886292	-0.016	-0.938	0.121	
860	1293741	13887852	0.043	-0.988	0.098	
861	1297669	13892368	0.043	-0.988	0.098	
862	1301408	13895540	0.039	-1.043	0.086	
863	1305084	13899024	0.039	-1.043	0.086	
864	1308786	13902804	0.039	-1.043	0.086	
865	1312827	13907864	0.008	-1.078	0.078	
866	1317260	13913472	0.008	-1.078	0.078	
867	1322348	13920524	-0.086	-1.035	0.098	
868	1327800	13927068	-0.086	-1.035	0.098	
869	1333142	13932080	-0.086	-1.035	0.098	
870	1338775	13938588	0.004	-1.051	0.172	
871	1344051	13942792	0.004	-1.051	0.172	
872	1349530	13948880	-0.449	-0.969	0.367	
873	1355021	13954408	-0.449	-0.969	0.367	
874	1359340	13955212	-0.449	-0.969	0.367	
875	1361569	13951168	-0.207	-0.914	0.391	
876	1360870	13941688	-0.207	-0.914	0.391	
877	1357040	13928464	0.117	-0.996	0.375	
878	1350483	13913724	0.117	-0.996	0.375	
879	1342274	13900560	0.117	-0.996	0.375	
880	1333661	13890736	0.035	-1.031	0.328	
881	1326068	13886204	0.035	-1.031	0.328	
882	1320594	13887084	0.023	-1.090	0.504	
883	1313982	13877060	0.023	-1.090	0.504	
884	1308396	13874552	0.023	-1.090	0.504	
885	1304258	13874756	0.176	-1.059	0.621	
886	1302548	13880332	0.176	-1.059	0.621	
887	1303672	13889956	0.309	-0.961	0.504	
888	1307189	13900652	0.309	-0.961	0.504	
889	1311662	13907996	0.309	-0.961	0.504	
890	1315810	13911168	0.297	-0.898	0.379	
891	1318596	13909868	0.297	-0.898	0.379	
892	1318848	13902516	0.461	-1.008	0.527	
893	1317219	13895244	0.461	-1.008	0.527	
894	1314767	13890324	0.461	-1.008	0.527	
895	1313256	13891636	0.590	-1.055	0.617	
896	1313632	13897672	0.590	-1.055	0.617	
897	1316064	13906272	0.590	-1.055	0.617	
898	1320132	13915248	0.637	-1.035	0.609	
899	1324882	13922044	0.637	-1.035	0.609	
900	1330205	13929088	0.660	-1.023	0.551	
901	1335658	13934932	0.660	-1.023	0.551	
902	1340168	13936612	0.660	-1.023	0.551	
903	1343895	13937988	0.758	-1.004	0.527	
904	1346682	13937956	0.758	-1.004	0.527	
905	1348483	13936800	0.844	-0.973	0.496	
906	1349248	13934456	0.844	-0.973	0.496	
907	1349271	13932252	0.844	-0.973	0.496	
908	1347708	13925932	0.906	-0.945	0.469	
909	1344490	13917748	0.906	-0.945	0.469	
910	1340497	13911432	0.934	-0.895	0.410	
911	1335162	13902072	0.934	-0.895	0.410	
912	1328707	13892256	0.934	-0.895	0.410	
913	1321210	13881632	0.961	-0.828	0.359	
914	1312201	13868088	0.961	-0.828	0.359	
915	1302025	13854412	0.953	-0.738	0.320	
916	1290490	13838800	0.953	-0.738	0.320	
917	1278322	13824732	0.953	-0.738	0.320	
918	1265885	13811488	0.941	-0.625	0.297	
919	1253667	13799928	0.941	-0.625	0.297	
920	1241952	13789720	0.938	-0.535	0.281	
921	1230369	13778532	0.938	-0.535	0.281	
922	1219125	13768308	0.938	-0.535	0.281	
923	1208149	13758136	0.887	-0.457	0.293	
924	1198471	13752352	0.887	-0.457	0.293	
925	1186716	13734364	0.848	-0.371	0.301	
926	1175095	13723144	0.848	-0.371	0.301	
927	1163484	13711564	0.848	-0.371	0.301	
928	1151427	13698168	0.844	-0.289	0.305	
929	1139308	13685864	0.844	-0.289	0.305	
930	1127747	13675976	0.836	-0.234	0.320	
931	1116059	13663908	0.836	-0.234	0.320	
932	1104544	13652912	0.836	-0.234	0.320	
933	1093232	13642208	0.770	-0.191	0.332	
934	1081907	13630844	0.770	-0.191	0.332	
935	1070955	13621012	0.715	-0.141	0.371	
936	1060477	13611956	0.715	-0.141	0.371	
937	1050286	13602628	0.715	-0.141	0.371	
938	1040597	13594444	0.711	-0.121	0.398	
939	1030999	13585120	0.711	-0.121	0.398	
940	1021532	13576044	0.711	-0.105	0.469	
941	1012120	13566796	0.711	-0.105	0.469	
942	1002947	13558340	0.711	-0.105	0.469	
943	993337	13547420	0.648	-0.082	0.492	
944	983251	13535908	0.648	-0.082	0.492	
945	972871	13524644	0.648	-0.082	0.492	
946	962094	13512676	0.566	-0.031	0.465	
947	950544	13498808	0.566	-0.031	0.465	
948	938641	13485844	0.477	0.008	0.465	
949	926688	13473744	0.477	0.008	0.465	
950	914703	13461660	0.477	0.008	0.465	
951	902640	13449364	0.465	0.031	0.492	
952	891300	13440192	0.465	0.031	0.492	
953	880834	13432348	0.445	0.016	0.531	
954	871727	13427320	0.445	0.016	0.531	
955	863440	13421492	0.445	0.016	0.531	
956	855831	13415916	0.344	0.000	0.586	
957	849176	13412124	0.344	0.000	0.586	
958	843421	13409068	0.250	-0.020	0.633	
959	838493	13406624	0.250	-0.020	0.633	
960	834415	13405096	0.250	-0.020	0.633	
961	831577	13405976	0.164	-0.059	0.684	
962	829072	13404472	0.164	-0.059	0.684	
963	827567	13405964	0.082	-0.102	0.773	
964	827035	13408352	0.082	-0.102	0.773	
965	827385	13411348	0.082	-0.102	0.773	
966	829765	13419820	-0.008	-0.152	0.828	
967	831641	13420184	-0.008	-0.152	0.828	
968	835004	13428008	-0.051	-0.191	0.855	
969	839522	13435988	-0.051	-0.191	0.855	
970	845537	13446496	-0.051	-0.191	0.855	
971	852234	13455240	-0.031	-0.238	0.883	
972	859665	13464872	-0.031	-0.238	0.883	
973	867404	13473536	-0.035	-0.316	0.934	
974	875514	13482756	-0.035	-0.316	0.934	
975	884372	13493860	-0.035	-0.316	0.934	
976	893336	13503140	-0.027	-0.395	0.926	
977	901839	13510260	-0.027	-0.395	0.926	
978	909439	13515152	-0.094	-0.379	0.949	
979	916163	13519248	-0.094	-0.379	0.949	
980	922162	13523072	-0.094	-0.379	0.949	
981	927835	13527768	-0.160	-0.363	0.961	
982	933352	13532816	-0.160	-0.363	0.961	
983	938256	13535880	-0.113	-0.348	1.020	
984	942782	13539272	-0.113	-0.348	1.020	
985	947380	13544088	-0.113	-0.348	1.020	
986	951615	13547232	-0.180	-0.285	1.027	
987	955575	13550368	-0.180	-0.285	1.027	
988	958819	13551464	-0.180	-0.285	1.027	
989	961633	13552988	-0.332	-0.203	1.035	
990	963707	13552844	-0.332	-0.203	1.035	
991	965263	13552844	-0.496	-0.270	1.102	
992	966893	13554696	-0.496	-0.270	1.102	
993	968639	13556792	-0.496	-0.270	1.102	
994	970700	13559796	-0.438	-0.180	1.063	
995	972434	13560548	-0.438	-0.180	1.063	
996	974203	13562424	-0.516	-0.105	0.965	
997	976286	13565448	-0.516	-0.105	0.965	
998	977919	13565732	-0.516	-0.105	0.965	
999	979490	13567116	-0.418	-0.066	0.855	
1000	980697	13567232	-0.418	-0.066	0.855	
1001	981584	13567160	-0.277	-0.047	0.871	
1002	982391	13567724	-0.277	-0.047	0.871	
1003	982982	13567668	-0.277	-0.047	0.871	
1004	983387	13567516	-0.246	-0.023	0.922	
1005	983944	13568528	-0.246	-0.023	0.922	
1006	984380	13568600	-0.215	0.031	0.938	
1007	984772	13568860	-0.215	0.031	0.938	
1008	985992	13572564	-0.215	0.031	0.938	
1009	985705	13567756	-0.156	0.035	0.961	
1010	985882	13569328	-0.156	0.035	0.961	
1011	986077	13569576	-0.105	0.078	1.004	
1012	986850	13572084	-0.105	0.078	1.004	
1013	987553	13572576	-0.105	0.078	1.004	
1014	988848	13575648	-0.137	0.102	0.992	
1015	990302	13577576	-0.137	0.102	0.992	
1016	991698	13578800	-0.215	0.066	0.984	
1017	993368	13581292	-0.215	0.066	0.984	
1018	995740	13585768	-0.215	0.066	0.984	
1019	998006	13587716	-0.270	0.035	0.984	
1020	1000432	13590624	-0.270	0.035	0.984	
1021	1002717	13592484	-0.281	0.059	0.957	
1022	1005632	13597292	-0.281	0.059	0.957	
1023	1008939	13601772	-0.281	0.059	0.957	
1024	1012839	13607452	-0.273	0.047	0.938	
1025	1017246	13613380	-0.273	0.047	0.938	
1026	1021368	13616648	-0.242	0.035	0.973	
1027	1025250	13619808	-0.242	0.035	0.973	
1028	1029213	13624016	-0.242	0.035	0.973	
1029	1032979	13627192	-0.211	0.051	0.945	
1030	1036624	13630472	-0.211	0.051	0.945	
1031	1040562	13635288	-0.176	0.035	0.949	
1032	1044603	13639640	-0.176	0.035	0.949	
1033	1048794	13644280	-0.176	0.035	0.949	
1034	1053113	13648984	-0.199	0.055	0.902	
1035	1057136	13652120	-0.199	0.055	0.902	
1036	1061059	13655740	-0.199	0.055	0.902	
1037	1064723	13658628	-0.141	0.059	0.910	
1038	1068510	13662784	-0.141	0.059	0.910	
1039	1072919	13669060	-0.152	0.039	0.902	
1040	1077071	13672440	-0.152	0.039	0.902	
1041	1081182	13676428	-0.152	0.039	0.902	
1042	1085591	13681732	-0.184	0.086	0.902	
1043	1089807	13685368	-0.184	0.086	0.902	
1044	1093770	13688572	-0.195	0.063	0.898	
1045	1097653	13692216	-0.195	0.063	0.898	
1046	1101271	13695040	-0.195	0.063	0.898	
1047	1105266	13700164	-0.180	0.082	0.910	
1048	1109135	13703656	-0.180	0.082	0.910	
1049	1113017	13707576	-0.199	0.098	0.934	
1050	1117922	13715552	-0.199	0.098	0.934	
1051	1121346	13714532	-0.199	0.098	0.934	
1052	1125396	13720460	-0.211	0.113	0.945	
1053	1129821	13726008	-0.211	0.113	0.945	
1054	1133916	13729116	-0.195	0.113	0.953	
1055	1137942	13732932	-0.195	0.113	0.953	
1056	1142076	13737392	-0.195	0.113	0.953	
1057	1146180	13741404	-0.184	0.129	0.957	
1058	1149916	13744036	-0.184	0.129	0.957	
1059	1153559	13747400	-0.234	0.152	0.945	
1060	1156998	13750228	-0.234	0.152	0.945	
1061	1160590	13754280	-0.234	0.152	0.945	
1062	1164031	13757268	-0.238	0.199	0.934	
1063	1168046	13763004	-0.238	0.199	0.934	
1064	1171920	13766456	-0.219	0.156	0.957	
1065	1175967	13771020	-0.219	0.156	0.957	
1066	1180304	13776228	-0.219	0.156	0.957	
1067	1184180	13778720	-0.227	0.164	0.953	
1068	1187587	13780720	-0.227	0.164	0.953	
1069	1190507	13782180	-0.215	0.156	0.922	
1070	1193185	13784132	-0.215	0.156	0.922	
1071	1196625	13789860	-0.215	0.156	0.922	
1072	1198884	13788576	-0.223	0.148	0.910	
1073	1201216	13791124	-0.223	0.148	0.910	
1074	1203094	13791640	-0.227	0.164	0.906	
1075	1204905	13793252	-0.227	0.164	0.906	
1076	1207030	13796320	-0.227	0.164	0.906	
1077	1209537	13799972	-0.219	0.156	0.910	
1078	1211557	13800532	-0.219	0.156	0.910	
1079	1213495	13802224	-0.219	0.156	0.910	
1080	1215484	13804364	-0.172	0.125	0.918	
1081	1217610	13806900	-0.172	0.125	0.918	
1082	1219553	13808296	-0.117	0.148	0.910	
1083	1221562	13810504	-0.117	0.148	0.910	
1084	1223862	13813676	-0.117	0.148	0.910	
1085	1225893	13814900	-0.117	0.184	0.914	
1086	1227744	13816212	-0.117	0.184	0.914	
1087	1229586	13818024	-0.113	0.184	0.922	
1088	1231577	13820464	-0.113	0.184	0.922	
1089	1233362	13821632	-0.113	0.184	0.922	
1090	1235404	13824444	-0.070	0.184	0.902	
1091	1237965	13828560	-0.070	0.184	0.902	
1092	1240662	13831668	-0.063	0.176	0.895	
1093	1241599	13827324	-0.063	0.176	0.895	
1094	1243099	13830512	-0.063	0.176	0.895	
1095	1244753	13832628	-0.070	0.188	0.887	
1096	1246670	13835336	-0.070	0.188	0.887	
1097	1248947	13838692	-0.105	0.207	0.918	
1098	1251237	13841020	-0.105	0.207	0.918	
1099	1253366	13842668	-0.105	0.207	0.918	
1100	1255414	13844472	-0.102	0.238	0.938	
1101	1257506	13846696	-0.102	0.238	0.938	
1102	1259841	13849760	-0.137	0.223	0.941	
1103	1262113	13851844	-0.137	0.223	0.941	
1104	1264330	13853896	-0.137	0.223	0.941	
1105	1266033	13854056	-0.176	0.223	0.922	
1106	1267988	13856768	-0.176	0.223	0.922	
1107	1270211	13859792	-0.184	0.223	0.918	
1108	1272462	13862128	-0.184	0.223	0.918	
1109	1274503	13863540	-0.184	0.223	0.918	
1110	1276457	13865232	-0.176	0.227	0.941	
1111	1278656	13868168	-0.176	0.227	0.941	
1112	1280707	13869772	-0.168	0.219	0.961	
1113	1282379	13870308	-0.168	0.219	0.961	
1114	1284296	13872960	-0.168	0.219	0.961	
1115	1286238	13874976	-0.141	0.234	0.898	
1116	1287927	13875908	-0.141	0.234	0.898	
1117	1289673	13877824	-0.141	0.234	0.934	
1118	1291450	13879696	-0.141	0.234	0.934	
1119	1292826	13879868	-0.141	0.234	0.934	
1120	1294575	13882736	-0.133	0.238	0.941	
1121	1296286	13884332	-0.133	0.238	0.941	
1122	1298206	13886880	-0.109	0.238	0.945	
1123	1299990	13888256	-0.109	0.238	0.945	
1124	1301909	13890580	-0.109	0.238	0.945	
1125	1304010	13893228	-0.152	0.289	0.922	
1126	1306077	13895192	-0.152	0.289	0.922	
1127	1307935	13896424	-0.152	0.289	0.922	
1128	1309902	13898716	-0.152	0.281	0.910	
1129	1312139	13901764	-0.152	0.281	0.910	
1130	1313884	13902032	-0.074	0.238	0.824	
1131	1315401	13902864	-0.074	0.238	0.824	
1132	1317382	13906240	-0.074	0.238	0.824	
1133	1319368	13908240	-0.117	0.250	0.848	
1134	1321884	13912344	-0.117	0.250	0.848	
1135	1322633	13907792	-0.133	0.270	0.883	
1136	1324002	13911024	-0.133	0.270	0.883	
1137	1325741	13913872	-0.137	0.258	0.902	
1138	1328066	13917956	-0.137	0.258	0.902	
1139	1330310	13919956	-0.137	0.258	0.902	
1140	1332285	13921124	-0.133	0.242	0.914	
1141	1334263	13923112	-0.133	0.242	0.914	
1142	1335925	13923824	-0.133	0.242	0.914	
1143	1337236	13924084	-0.137	0.234	0.922	
1144	1338758	13926236	-0.137	0.234	0.922	
1145	1340382	13928168	-0.152	0.242	0.918	
1146	1342246	13930752	-0.152	0.242	0.918	
1147	1344001	13932180	-0.152	0.242	0.918	
1148	1345839	13934268	-0.152	0.250	0.918	
1149	1347688	13936148	-0.152	0.250	0.918	
1150	1349775	13938948	-0.168	0.250	0.922	
1151	1351462	13939436	-0.168	0.250	0.922	
1152	1353235	13941468	-0.168	0.250	0.922	
1153	1354758	13942240	-0.160	0.238	0.910	
1154	1356949	13946436	-0.160	0.238	0.910	
1155	1358836	13947412	-0.152	0.230	0.914	
1156	1360435	13948144	-0.152	0.230	0.914	
1157	1361824	13948904	-0.152	0.230	0.914	
1158	1363379	13950956	-0.172	0.242	0.914	
1159	1364876	13952280	-0.172	0.242	0.914	
1160	1366323	13953576	-0.176	0.246	0.910	
1161	1367784	13955080	-0.176	0.246	0.910	
1162	1369039	13955716	-0.176	0.246	0.910	
1163	1370431	13957520	-0.172	0.254	0.910	
1164	1371589	13957976	-0.172	0.254	0.910	
1165	1372811	13959392	-0.164	0.238	0.910	
1166	1374557	13962708	-0.164	0.238	0.910	
1167	1376260	13964284	-0.164	0.238	0.910	
1168	1377991	13966096	-0.191	0.242	0.914	
1169	1379636	13967484	-0.191	0.242	0.914	
1170	1380806	13967228	-0.191	0.242	0.914	
1171	1382435	13970236	-0.188	0.242	0.922	
1172	1384161	13972252	-0.188	0.242	0.922	
1173	1385791	13973596	-0.207	0.246	0.906	
1174	1387162	13974188	-0.207	0.246	0.906	
1175	1388789	13976584	-0.207	0.246	0.906	
1176	1390686	13979292	-0.207	0.234	0.902	
1177	1390860	13974296	-0.207	0.234	0.902	
1178	1391350	13975732	-0.191	0.230	0.891	
1179	1392099	13977260	-0.191	0.230	0.891	
1180	1393384	13980152	-0.191	0.230	0.898	
1181	1394269	13979836	-0.191	0.230	0.898	
1182	1395216	13980972	-0.191	0.230	0.898	
1183	1396703	13984076	-0.223	0.234	0.898	
1184	1398057	13985032	-0.223	0.234	0.898	
1185	1399813	13987996	-0.223	0.234	0.898	
1186	1401287	13988624	-0.227	0.227	0.902	
1187	1402283	13988184	-0.227	0.227	0.902	
1188	1403906	13991688	-0.215	0.223	0.922	
1189	1404763	13990248	-0.215	0.223	0.922	
1190	1405468	13990496	-0.215	0.223	0.922	
1191	1406426	13992212	-0.215	0.215	0.906	
1192	1407252	13992644	-0.215	0.215	0.906	
1193	1408278	13994268	-0.230	0.207	0.906	
1194	1409355	13995500	-0.230	0.207	0.906	
1195	1410413	13996500	-0.230	0.207	0.906	
1196	1411292	13996844	-0.250	0.207	0.898	
1197	1412498	13999028	-0.250	0.207	0.898	
1198	1413446	13999204	-0.273	0.164	0.926	
1199	1414469	14000452	-0.273	0.164	0.926	
1200	1415418	14001180	-0.273	0.164	0.926	
1201	1416276	14001764	-0.297	0.156	0.938	
1202	1417108	14002516	-0.297	0.156	0.938	
1203	1417750	14002588	-0.375	0.141	0.973	
1204	1417891	14001228	-0.375	0.141	0.973	
1205	1417737	14000188	-0.375	0.141	0.973	
1206	1417774	14000800	-0.395	0.133	0.988	
1207	1416938	13997344	-0.395	0.133	0.988	
1208	1415596	13994484	-0.387	0.133	0.996	
1209	1413551	13990328	-0.387	0.133	0.996	
1210	1411460	13988100	-0.387	0.133	0.996	
1211	1408759	13983568	-0.371	0.137	1.027	
1212	1405656	13979260	-0.371	0.137	1.027	
1213	1401704	13972760	-0.406	0.164	1.059	
1214	1397211	13966644	-0.406	0.164	1.059	
1215	1392101	13959684	-0.406	0.164	1.059	
1216	1386932	13954340	-0.418	0.211	1.043	
1217	1382321	13951400	-0.418	0.211	1.043	
1218	1377656	13946576	-0.410	0.250	1.043	
1219	1371161	13934588	-0.410	0.250	1.043	
1220	1365208	13930264	-0.410	0.250	1.043	
1221	1359295	13924468	-0.359	0.266	1.020	
1222	1354140	13921588	-0.359	0.266	1.020	
1223	1349217	13917360	-0.215	0.297	0.969	
1224	1344515	13913324	-0.215	0.297	0.969	
1225	1339970	13909248	-0.215	0.297	0.969	
1226	1335237	13903952	0.008	0.301	0.973	
1227	1329973	13897096	0.008	0.301	0.973	
1228	1325336	13894340	0.285	0.301	0.969	
1229	1321831	13894228	0.285	0.301	0.969	
1230	1321318	13902692	0.285	0.301	0.969	
1231	1322728	13909872	0.414	0.313	0.918	
1232	1324919	13914404	0.414	0.313	0.918	
1233	1330176	13928860	0.414	0.313	0.918	
1234	1337869	13943860	0.426	0.297	0.848	
1235	1346926	13957012	0.426	0.297	0.848	
1236	1356324	13967432	0.402	0.270	0.805	
1237	1365522	13976028	0.402	0.270	0.805	
1238	1374127	13982856	0.402	0.270	0.805	
1239	1380217	13981400	0.305	0.258	0.789	
1240	1384593	13980636	0.305	0.258	0.789	
1241	1388415	13982796	0.156	0.262	0.793	
1242	1392297	13986856	0.156	0.262	0.793	
1243	1395693	13988796	0.156	0.262	0.793	
1244	1398680	13990556	0.047	0.273	0.781	
1245	1401424	13992568	0.047	0.273	0.781	
1246	1403776	13993744	-0.020	0.277	0.758	
1247	1405301	13992788	-0.020	0.277	0.758	
1248	1406319	13992288	-0.020	0.277	0.758	
1249	1407424	13993652	-0.027	0.246	0.719	
1250	1408361	13994084	-0.027	0.246	0.719	
1251	1409655	13996452	-0.055	0.211	0.715	
1252	1410782	13997076	-0.055	0.211	0.715	
1253	1411267	13995636	-0.055	0.211	0.715	
1254	1410607	13991540	-0.008	0.145	0.766	
1255	1409744	13990068	-0.008	0.145	0.766	
1256	1408563	13987932	0.066	0.082	0.816	
1257	1406554	13983440	0.066	0.082	0.816	
1258	1404149	13979848	0.066	0.082	0.816	
1259	1401289	13975624	0.102	0.051	0.828	
1260	1398564	13973304	0.102	0.051	0.828	
1261	1393825	13962520	0.094	0.031	0.789	
1262	1389137	13957988	0.094	0.031	0.789	
1263	1384518	13953576	0.094	0.031	0.789	
1264	1380035	13949500	0.059	0.043	0.754	
1265	1375256	13943832	0.059	0.043	0.754	
1266	1370268	13938216	0.066	0.055	0.742	
1267	1365299	13933304	0.066	0.055	0.742	
1268	1360226	13927920	0.066	0.055	0.742	
1269	1355644	13924812	0.121	0.090	0.727	
1270	1350515	13918040	0.121	0.090	0.727	
1271	1345451	13913172	0.223	0.121	0.723	
1272	1340135	13907100	0.223	0.121	0.723	
1273	1335188	13903260	0.223	0.121	0.723	
1274	1330715	13900208	0.270	0.176	0.730	
1275	1326545	13896948	0.270	0.176	0.730	
1276	1323343	13896652	0.285	0.234	0.758	
1277	1320523	13894976	0.285	0.234	0.758	
1278	1319175	13898044	0.285	0.234	0.758	
1279	1318939	13901144	0.285	0.266	0.789	
1280	1319677	13904804	0.285	0.266	0.789	
1281	1321203	13908696	0.285	0.266	0.789	
1282	1323591	13913668	0.281	0.301	0.820	
1283	1326196	13916924	0.281	0.301	0.820	
1284	1329081	13920648	0.246	0.340	0.840	
1285	1331728	13922584	0.246	0.340	0.840	
1286	1334301	13924932	0.246	0.340	0.840	
1287	1336817	13927280	0.230	0.352	0.867	
1288	1339269	13929540	0.230	0.352	0.867	
1289	1341843	13932480	0.344	0.301	0.910	
1290	1343992	13933352	0.344	0.301	0.910	
1291	1345317	13932204	0.344	0.301	0.910	
1292	1345951	13930768	0.289	0.246	1.039	
1293	1345362	13926508	0.289	0.246	1.039	
1294	1343526	13920932	0.281	0.293	1.176	
1295	1341063	13916588	0.281	0.293	1.176	
1296	1338421	13913408	0.281	0.293	1.176	
1297	1335407	13909280	0.254	0.336	1.258	
1298	1332094	13905068	0.254	0.336	1.258	
1299	1328642	13901200	0.109	0.328	1.219	
1300	1325087	13897336	0.109	0.328	1.219	
1301	1320877	13891160	0.109	0.328	1.219	
1302	1317056	13888508	0.082	0.289	1.148	
1303	1312528	13881856	0.082	0.289	1.148	
1304	1310303	13886540	0.309	0.313	0.922	
1305	1310520	13894084	0.309	0.313	0.922	
1306	1312575	13901652	0.309	0.313	0.922	
1307	1316051	13909392	0.414	0.266	0.824	
1308	1320690	13917520	0.414	0.266	0.824	
1309	1325509	13922880	0.375	0.234	0.871	
1310	1330530	13928508	0.375	0.234	0.871	
1311	1334821	13930608	0.375	0.234	0.871	
1312	1339040	13934612	0.332	0.246	0.914	
1313	1341869	13933268	0.332	0.246	0.914	
1314	1342361	13926752	0.328	0.266	0.953	
1315	1340001	13915836	0.328	0.266	0.953	
1316	1335321	13904196	0.328	0.266	0.953	
1317	1330181	13897676	0.301	0.281	0.930	
1318	1325191	13893136	0.301	0.281	0.930	
1319	1321797	13894528	0.441	0.297	0.891	
1320	1319988	13897476	0.441	0.297	0.891	
1321	1319782	13902076	0.441	0.297	0.891	
1322	1320873	13907060	0.465	0.301	0.836	
1323	1322610	13910736	0.465	0.301	0.836	
1324	1324672	13913772	0.465	0.301	0.836	
1325	1327032	13917024	0.375	0.301	0.809	
1326	1328999	13917812	0.375	0.301	0.809	
1327	1330918	13919588	0.289	0.297	0.855	
1328	1333137	13922708	0.289	0.297	0.855	
1329	1336065	13927764	0.289	0.297	0.855	
1330	1339781	13933844	0.223	0.297	0.910	
1331	1343611	13938016	0.223	0.297	0.910	
1332	1347644	13942656	0.105	0.324	0.930	
1333	1351686	13946724	0.105	0.324	0.930	
1334	1356959	13955692	0.105	0.324	0.930	
1335	1363264	13965092	0.105	0.395	0.805	
1336	1369014	13969176	0.105	0.395	0.805	
1337	1373357	13969300	-0.043	0.324	0.777	
1338	1376915	13970504	-0.043	0.324	0.777	
1339	1381256	13977192	-0.043	0.324	0.777	
1340	1387261	13988188	0.117	0.270	0.789	
1341	1394381	13998656	0.117	0.270	0.789	
1342	1401438	14005524	0.090	0.188	0.797	
1343	1407675	14009300	0.090	0.188	0.797	
1344	1415373	14021380	0.090	0.188	0.797	
1345	1421660	14023436	0.148	0.219	0.844	
1346	1428138	14030484	0.148	0.219	0.844	
1347	1434169	14035176	0.203	0.305	0.902	
1348	1439422	14038096	0.203	0.305	0.902	
1349	1444833	14043980	0.203	0.305	0.902	
1350	1450512	14050464	0.332	0.309	0.988	
1351	1456792	14058544	0.332	0.309	0.988	
1352	1463343	14065908	0.473	0.289	0.957	
1353	1470448	14074676	0.473	0.289	0.957	
1354	1477159	14080204	0.473	0.289	0.957	
1355	1483577	14085744	0.469	0.270	0.855	
1356	1490023	14092276	0.469	0.270	0.855	
1357	1496226	14097748	0.516	0.320	0.836	
1358	1502027	14102344	0.516	0.320	0.836	
1359	1506783	14103964	0.516	0.320	0.836	
1360	1510329	14103880	0.293	0.301	0.793	
1361	1513533	14106060	0.293	0.301	0.793	
1362	1516622	14108804	0.266	0.289	0.785	
1363	1520167	14113716	0.266	0.289	0.785	
1364	1523453	14116224	0.266	0.289	0.785	
1365	1527008	14120588	0.305	0.301	0.773	
1366	1531969	14129764	0.305	0.301	0.773	
1367	1538748	14142000	0.367	0.324	0.711	
1368	1546077	14150976	0.367	0.324	0.711	
1369	1552795	14155864	0.367	0.324	0.711	
1370	1559334	14161864	0.449	0.344	0.641	
1371	1566587	14171260	0.449	0.344	0.641	
1372	1575335	14184492	0.449	0.344	0.641	
1373	1585755	14199928	0.566	0.402	0.590	
1374	1597499	14215644	0.566	0.402	0.590	
1375	1610415	14232076	0.652	0.441	0.594	
1376	1624589	14250024	0.652	0.441	0.594	
1377	1639285	14266288	0.652	0.441	0.594	
1378	1654325	14282360	0.719	0.449	0.570	
1379	1669291	14297104	0.719	0.449	0.570	
1380	1683892	14310608	0.770	0.441	0.555	
1381	1697585	14321576	0.770	0.441	0.555	
1382	1709173	14326852	0.770	0.441	0.555	
1383	1717669	14326072	0.719	0.457	0.586	
1384	1723343	14323280	0.719	0.457	0.586	
1385	1727349	14322280	0.730	0.422	0.609	
1386	1731065	14325128	0.730	0.422	0.609	
1387	1733669	14324396	0.730	0.422	0.609	
1388	1737501	14331912	0.816	0.355	0.582	
1389	1742304	14339628	0.816	0.355	0.582	
1390	1747435	14345740	0.898	0.297	0.559	
1391	1753548	14354800	0.898	0.297	0.559	
1392	1760414	14363924	0.898	0.297	0.559	
1393	1768257	14374700	0.926	0.242	0.547	
1394	1776722	14385032	0.926	0.242	0.547	
1395	1785803	14395960	0.965	0.168	0.488	
1396	1795251	14406508	0.965	0.168	0.488	
1397	1805260	14418200	0.965	0.168	0.488	
1398	1815663	14429784	0.957	0.113	0.469	
1399	1825915	14439584	0.957	0.113	0.469	
1400	1836632	14451696	0.926	0.055	0.430	
1401	1847354	14462432	0.926	0.055	0.430	
1402	1858574	14475148	0.926	0.055	0.430	
1403	1869911	14486836	0.879	0.020	0.387	
1404	1881270	14498260	0.879	0.020	0.387	
1405	1892324	14508400	0.895	-0.004	0.375	
1406	1903118	14518412	0.895	-0.004	0.375	
1407	1913554	14527776	0.895	-0.004	0.375	
1408	1923917	14537920	0.910	-0.043	0.371	
1409	1933872	14546652	0.910	-0.043	0.371	
1410	1943860	14556736	0.918	-0.070	0.340	
1411	1953647	14565920	0.918	-0.070	0.340	
1412	1963677	14576680	0.918	-0.070	0.340	
1413	1973623	14586376	0.891	-0.055	0.340	
1414	1982772	14593132	0.891	-0.055	0.340	
1415	1990741	14597560	0.891	-0.055	0.340	
1416	1997798	14601884	0.867	-0.031	0.355	
1417	2003860	14604960	0.867	-0.031	0.355	
1418	2007569	14601608	0.801	-0.020	0.406	
1419	2009750	14599208	0.801	-0.020	0.406	
1420	2009952	14593472	0.801	-0.020	0.406	
1421	2007783	14584188	0.793	0.016	0.418	
1422	2004996	14579548	0.793	0.016	0.418	
1423	2001374	14573420	0.848	0.020	0.406	
1424	1996974	14566688	0.848	0.020	0.406	
1425	1992543	14562164	0.848	0.020	0.406	
1426	1988423	14558976	0.867	0.059	0.352	
1427	1984210	14554484	0.867	0.059	0.352	
1428	1980926	14553988	0.887	0.094	0.289	
1429	1976370	14545616	0.887	0.094	0.289	
1430	1972126	14542308	0.887	0.094	0.289	
1431	1967906	14538160	0.906	0.098	0.270	
1432	1963455	14533016	0.906	0.098	0.270	
1433	1958489	14526504	0.918	0.102	0.285	
1434	1953323	14520740	0.918	0.102	0.285	
1435	1948429	14516660	0.918	0.102	0.285	
1436	1943608	14512060	0.977	0.109	0.273	
1437	1939546	14510272	0.977	0.109	0.273	
1438	1937199	14513072	1.102	0.125	0.219	
1439	1936707	14518144	1.102	0.125	0.219	
1440	1937514	14522848	1.102	0.125	0.219	
1441	1938362	14523820	1.090	0.156	0.195	
1442	1939344	14525204	1.090	0.156	0.195	
1443	1941384	14530416	0.969	0.148	0.188	
1444	1944183	14535492	0.969	0.148	0.188	
1445	1948093	14542736	0.969	0.148	0.188	
1446	1952568	14548908	0.934	0.180	0.180	
1447	1956757	14552236	0.934	0.180	0.180	
1448	1960276	14553748	0.957	0.199	0.176	
1449	1963318	14555356	0.957	0.199	0.176	
1450	1965577	14555268	0.957	0.199	0.176	
1451	1967307	14555412	0.969	0.215	0.141	
1452	1968839	14556348	0.969	0.215	0.141	
1453	1970391	14557960	0.980	0.211	0.125	
1454	1971702	14558548	0.980	0.211	0.125	
1455	1972674	14558504	0.980	0.211	0.125	
1456	1973381	14558416	0.949	0.215	0.152	
1457	1974849	14562168	0.949	0.215	0.152	
1458	1976106	14562792	0.965	0.211	0.164	
1459	1977607	14565024	0.965	0.211	0.164	
1460	1979994	14570068	0.965	0.211	0.164	
1461	1983543	14577104	0.969	0.172	0.219	
1462	1987614	14582740	0.969	0.172	0.219	
1463	1991860	14587512	0.969	0.172	0.219	
1464	1996737	14594280	0.922	0.168	0.254	
1465	2001749	14599700	0.922	0.168	0.254	
1466	2006815	14604928	0.930	0.141	0.242	
1467	2010532	14604596	0.930	0.141	0.242	
1468	2012751	14602320	0.930	0.141	0.242	
1469	2013543	14598832	0.918	0.141	0.238	
1470	2013018	14594356	0.918	0.141	0.238	
1471	2008097	14576248	0.926	0.109	0.250	
1472	2001219	14563500	0.926	0.109	0.250	
1473	1992835	14550596	0.945	0.121	0.246	
1474	1983176	14537112	0.945	0.121	0.246	
1475	1972038	14521536	0.945	0.121	0.246	
1476	1959943	14506572	0.957	0.148	0.227	
1477	1947659	14493720	0.957	0.148	0.227	
1478	1935427	14481644	0.957	0.148	0.227	
1479	1923075	14468932	0.961	0.152	0.191	
1480	1911019	14457764	0.961	0.152	0.191	
1481	1899783	14448988	0.957	0.184	0.156	
1482	1889519	14441640	0.957	0.184	0.156	
1483	1880583	14436688	0.957	0.184	0.156	
1484	1872264	14430220	0.965	0.188	0.160	
1485	1864980	14426040	0.965	0.188	0.160	
1486	1858442	14421740	0.973	0.191	0.176	
1487	1852954	14419404	0.973	0.191	0.176	
1488	1848499	14418048	0.973	0.191	0.176	
1489	1845030	14417536	0.965	0.188	0.203	
1490	1842230	14416744	0.965	0.188	0.203	
1491	1840155	14416844	0.969	0.176	0.242	
1492	1838735	14417388	0.969	0.176	0.242	
1493	1837681	14417432	0.969	0.176	0.242	
1494	1837308	14419104	0.977	0.156	0.273	
1495	1837118	14419460	0.977	0.156	0.273	
1496	1837689	14422316	0.965	0.129	0.293	
1497	1838430	14423568	0.965	0.129	0.293	
1498	1839127	14424132	0.965	0.129	0.293	
1499	1839941	14425296	0.945	0.121	0.289	
1500	1841172	14427780	0.945	0.121	0.289	
1501	1842635	14429936	0.934	0.125	0.273	
1502	1844186	14431752	0.934	0.125	0.273	
1503	1846739	14437312	0.934	0.125	0.273	
1504	1849800	14441896	0.945	0.121	0.266	
1505	1853232	14446440	0.945	0.121	0.266	
1506	1856941	14450980	0.934	0.121	0.281	
1507	1860817	14455360	0.934	0.121	0.281	
1508	1865107	14460892	0.934	0.121	0.281	
1509	1869722	14466480	0.918	0.133	0.277	
1510	1874917	14473416	0.918	0.133	0.277	
1511	1880275	14479264	0.918	0.133	0.277	
1512	1885689	14484844	0.914	0.129	0.285	
1513	1889437	14483596	0.914	0.129	0.285	
1514	1893536	14488748	0.922	0.133	0.289	
1515	1898344	14495680	0.922	0.133	0.289	
1516	1902491	14497844	0.930	0.125	0.309	
1517	1906665	14502100	0.930	0.125	0.309	
1518	1910571	14505204	0.930	0.125	0.309	
1519	1914902	14510808	0.922	0.125	0.324	
1520	1919612	14516656	0.922	0.125	0.324	
1521	1924855	14523496	0.914	0.129	0.285	
1522	1931113	14532800	0.914	0.129	0.285	
1523	1937907	14541204	0.914	0.129	0.285	
1524	1944502	14547200	0.887	0.133	0.285	
1525	1951356	14554832	0.887	0.133	0.285	
1526	1958505	14562864	0.887	0.133	0.285	
1527	1966077	14571708	0.883	0.137	0.297	
1528	1973729	14579600	0.883	0.137	0.297	
1529	1981390	14587288	0.918	0.141	0.297	
1530	1989084	14595080	0.918	0.141	0.297	
1531	1996727	14602568	0.918	0.141	0.297	
1532	2004435	14610472	0.906	0.133	0.309	
1533	2012235	14618548	0.906	0.133	0.309	
1534	2020502	14628216	0.926	0.129	0.324	
1535	2029255	14638428	0.926	0.129	0.324	
1536	2038569	14649424	0.926	0.129	0.324	
1537	2048033	14659340	0.941	0.129	0.324	
1538	2057345	14668196	0.941	0.129	0.324	
1539	2067102	14679288	0.941	0.117	0.328	
1540	2076026	14685712	0.941	0.117	0.328	
1541	2084857	14694264	0.941	0.117	0.328	
1542	2093550	14702544	0.941	0.125	0.332	
1543	2101908	14709896	0.941	0.125	0.332	
1544	2110106	14717612	0.945	0.117	0.328	
1545	2117561	14722840	0.945	0.117	0.328	
1546	2124893	14729804	0.945	0.117	0.328	
1547	2131885	14735776	0.945	0.129	0.332	
1548	2138431	14740984	0.945	0.129	0.332	
1549	2144602	14746028	0.922	0.125	0.336	
1550	2150433	14750840	0.922	0.125	0.336	
1551	2155585	14753956	0.922	0.125	0.336	
1552	2160300	14757360	0.914	0.133	0.332	
1553	2164748	14761004	0.914	0.133	0.332	
1554	2169642	14767236	0.926	0.121	0.336	
1555	2172455	14763808	0.926	0.121	0.336	
1556	2175382	14767076	0.926	0.121	0.336	
1557	2177955	14768588	0.930	0.125	0.320	
1558	2180872	14772536	0.930	0.125	0.320	
1559	2182826	14771600	0.934	0.133	0.313	
1560	2184472	14772324	0.934	0.133	0.313	
1561	2185785	14772636	0.934	0.133	0.313	
1562	2186837	14772908	0.914	0.133	0.305	
1563	2187750	14773404	0.914	0.133	0.305	
1564	2188644	14774240	0.902	0.145	0.313	
1565	2189383	14774512	0.902	0.145	0.313	
1566	2189689	14773520	0.902	0.145	0.313	
1567	2189861	14773292	0.910	0.133	0.313	
1568	2190103	14773744	0.910	0.133	0.313	
1569	2190203	14773416	0.910	0.141	0.293	
1570	2190263	14773356	0.910	0.141	0.293	
1571	2190448	14773916	0.910	0.141	0.293	
1572	2190604	14773984	0.922	0.141	0.309	
1573	2190694	14773876	0.922	0.141	0.309	
1574	2190532	14772960	0.926	0.141	0.313	
1575	2190455	14773136	0.926	0.141	0.313	
1576	2190207	14772376	0.926	0.141	0.313	
1577	2190135	14772832	0.922	0.145	0.316	
1578	2190063	14772760	0.922	0.145	0.316	
1579	2190076	14773028	0.922	0.145	0.316	
1580	2189960	14772524	0.930	0.145	0.297	
1581	2190138	14773584	0.930	0.145	0.297	
1582	2190414	14774156	0.930	0.129	0.297	
1583	2190657	14774300	0.930	0.129	0.297	
1584	2190573	14773236	0.930	0.129	0.297	
1585	2190931	14774920	0.930	0.129	0.297	
1586	2191238	14775072	0.930	0.129	0.297	
1587	2191617	14775668	0.914	0.133	0.297	
1588	2191741	14775028	0.914	0.133	0.297	
1589	2192116	14776156	0.914	0.133	0.297	
1590	2192586	14776908	0.938	0.125	0.293	
1591	2192881	14776680	0.938	0.125	0.293	
1592	2192987	14776220	0.926	0.129	0.309	
1593	2193158	14776584	0.926	0.129	0.309	
1594	2192876	14774944	0.926	0.129	0.309	
1595	2192416	14773948	0.922	0.141	0.313	
1596	2192495	14775644	0.922	0.141	0.313	
1597	2190771	14768512	0.922	0.133	0.309	
1598	2189539	14768756	0.922	0.133	0.309	
1599	2188777	14769404	0.922	0.133	0.309	
1600	2188432	14770312	0.918	0.129	0.301	
1601	2187705	14768436	0.918	0.129	0.301	
1602	2187283	14768932	0.922	0.121	0.305	
1603	2187311	14770308	0.922	0.121	0.305	
1604	2187944	14772756	0.922	0.121	0.305	
1605	2188399	14772676	0.922	0.117	0.313	
1606	2188825	14773016	0.922	0.117	0.313	
1607	2189951	14776244	0.926	0.121	0.313	
1608	2191126	14777564	0.926	0.121	0.313	
1609	2192101	14777940	0.926	0.121	0.313	
1610	2193033	14778744	0.930	0.121	0.309	
1611	2194125	14780316	0.930	0.121	0.309	
1612	2194944	14780316	0.930	0.121	0.320	
1613	2195635	14780620	0.930	0.121	0.320	
1614	2196280	14781128	0.930	0.121	0.320	
1615	2196721	14780956	0.910	0.031	0.398	
1616	2197825	14784052	0.910	0.031	0.398	
1617	2199893	14789012	0.883	0.043	0.375	
1618	2202775	14794336	0.883	0.043	0.375	
1619	2205890	14798148	0.883	0.043	0.375	
1620	2209520	14803324	0.902	0.078	0.359	
1621	2213072	14806640	0.902	0.078	0.359	
1622	2216641	14810260	0.902	0.078	0.379	
1623	2220099	14813388	0.914	0.078	0.379	
1624	2223378	14816128	0.914	0.078	0.379	
1625	2226409	14818416	0.906	0.098	0.371	
1626	2229371	14821172	0.906	0.098	0.371	
1627	2232840	14826160	0.906	0.098	0.371	
1628	2236056	14828616	0.902	0.102	0.359	
1629	2239807	14833972	0.902	0.102	0.359	
1630	2243467	14837360	0.898	0.098	0.332	
1631	2247288	14841664	0.898	0.098	0.332	
1632	2250465	14842908	0.898	0.098	0.332	
1633	2253193	14844292	0.922	0.113	0.328	
1634	2255750	14846336	0.922	0.113	0.328	
1635	2258190	14848424	0.910	0.113	0.336	
1636	2260523	14850436	0.910	0.113	0.336	
1637	2262248	14850336	0.910	0.113	0.336	
1638	2264292	14853336	0.906	0.129	0.328	
1639	2265032	14850164	0.906	0.129	0.328	
1640	2266486	14853760	0.945	0.121	0.301	
1641	2268370	14856936	0.945	0.121	0.301	
1642	2270517	14859872	0.945	0.121	0.301	
1643	2272889	14862920	0.926	0.113	0.336	
1644	2275128	14864760	0.926	0.113	0.336	
1645	2277818	14868800	0.887	0.109	0.344	
1646	2280616	14871924	0.887	0.109	0.344	
1647	2283179	14873780	0.887	0.109	0.344	
1648	2285656	14876000	0.922	0.094	0.367	
1649	2287771	14877028	0.922	0.094	0.367	
1650	2289378	14877112	0.926	0.094	0.375	
1651	2290289	14875936	0.926	0.094	0.375	
1652	2291129	14876564	0.926	0.094	0.375	
1653	2291912	14877176	0.941	0.098	0.352	
1654	2292368	14876648	0.941	0.098	0.352	
1655	2292159	14874444	0.938	0.098	0.320	
1656	2291999	14874432	0.938	0.098	0.320	
1657	2290831	14870240	0.938	0.098	0.320	
1658	2288776	14865524	0.926	0.102	0.301	
1659	2285973	14860476	0.926	0.102	0.301	
1660	2282152	14853604	0.910	0.105	0.305	
1661	2278214	14849312	0.910	0.105	0.305	
1662	2274182	14845000	0.910	0.105	0.305	
1663	2270082	14840696	0.902	0.113	0.316	
1664	2266437	14838416	0.902	0.113	0.316	
1665	2262490	14833564	0.906	0.125	0.309	
1666	2258468	14829316	0.906	0.125	0.309	
1667	2254077	14823816	0.906	0.125	0.309	
1668	2249611	14819128	0.930	0.109	0.316	
1669	2244561	14812324	0.930	0.109	0.316	
1670	2238664	14803888	0.930	0.109	0.316	
1671	2231295	14792100	0.945	0.102	0.320	
1672	2222568	14779300	0.945	0.102	0.320	
1673	2213047	14767396	0.965	0.102	0.336	
1674	2202065	14752032	0.965	0.102	0.336	
1675	2189790	14735880	0.965	0.102	0.336	
1676	2176756	14720568	0.941	0.105	0.348	
1677	2162646	14703228	0.941	0.105	0.348	
1678	2148753	14689988	0.930	0.117	0.328	
1679	2134911	14676300	0.930	0.117	0.328	
1680	2122407	14667808	0.934	0.121	0.332	
1681	2108907	14651320	0.934	0.121	0.332	
1682	2096490	14642152	0.934	0.121	0.332	
1683	2085249	14634440	0.902	0.125	0.344	
1684	2074949	14626964	0.902	0.125	0.344	
1685	2064836	14617412	0.902	0.125	0.344	
1686	2055169	14609080	0.883	0.129	0.367	
1687	2046761	14604452	0.883	0.129	0.367	
1688	2038914	14598288	0.895	0.145	0.352	
1689	2031865	14593632	0.895	0.145	0.352	
1690	2025387	14588868	0.895	0.145	0.352	
1691	2019018	14582824	0.898	0.164	0.320	
1692	2012938	14577612	0.898	0.164	0.320	
1693	2006587	14570448	0.898	0.176	0.281	
1694	2000041	14563316	0.898	0.176	0.281	
1695	1993922	14558480	0.898	0.176	0.281	
1696	1987965	14553008	0.922	0.180	0.242	
1697	1982333	14548352	0.922	0.180	0.242	
1698	1976963	14543768	0.926	0.176	0.227	
1699	1971560	14538264	0.926	0.176	0.227	
1700	1965976	14532136	0.926	0.176	0.227	
1701	1960883	14528516	0.945	0.176	0.211	
1702	1955724	14523160	0.945	0.176	0.211	
1703	1951420	14521420	0.961	0.195	0.184	
1704	1947506	14518676	0.961	0.195	0.184	
1705	1944426	14518100	0.961	0.195	0.184	
1706	1941785	14516776	0.965	0.176	0.195	
1707	1939541	14515724	0.965	0.176	0.195	
1708	1937771	14515376	0.984	0.168	0.199	
1709	1936563	14515852	0.984	0.168	0.199	
1710	1936108	14517656	0.984	0.168	0.199	
1711	1935681	14517312	0.992	0.168	0.188	
1712	1936059	14520108	0.992	0.168	0.188	
1713	1937174	14523432	0.984	0.172	0.156	
1714	1938869	14526868	0.984	0.172	0.156	
1715	1940497	14528296	0.984	0.172	0.156	
1716	1941609	14527860	0.969	0.168	0.117	
1717	1942760	14529128	0.969	0.168	0.117	
1718	1943291	14527796	0.969	0.168	0.117	
1719	1943441	14526804	0.961	0.148	0.094	
1720	1942678	14523304	0.961	0.148	0.094	
1721	1941691	14521644	0.957	0.188	0.063	
1722	1940986	14521784	0.957	0.188	0.063	
1723	1938235	14512896	0.992	0.191	0.012	
1724	1935893	14511780	0.992	0.191	0.012	
1725	1933791	14510400	0.992	0.191	0.012	
1726	1931674	14508236	0.945	0.156	-0.016	
1727	1928677	14502600	0.945	0.156	-0.016	
1728	1925013	14496936	0.957	0.137	-0.035	
1729	1920825	14491176	0.957	0.137	-0.035	
1730	1916573	14486732	0.957	0.137	-0.035	
1731	1911733	14480128	0.926	0.102	-0.055	
1732	1905924	14471412	0.926	0.102	-0.055	
1733	1899612	14463588	0.926	0.102	-0.055	
1734	1892454	14453892	0.895	0.148	-0.109	
1735	1884857	14444980	0.895	0.148	-0.109	
1736	1876529	14434460	0.887	0.211	-0.125	
1737	1867879	14424844	0.887	0.211	-0.125	
1738	1859180	14415996	0.887	0.211	-0.125	
1739	1850295	14406552	0.918	0.273	-0.141	
1740	1841122	14396516	0.918	0.273	-0.141	
1741	1831839	14386904	0.906	0.309	-0.160	
1742	1822785	14378536	0.906	0.309	-0.160	
1743	1813699	14369356	0.906	0.309	-0.160	
1744	1804911	14361460	0.867	0.344	-0.156	
1745	1796625	14354680	0.867	0.344	-0.156	
1746	1788452	14346848	0.836	0.355	-0.145	
1747	1780276	14338660	0.836	0.355	-0.145	
1748	1772854	14333500	0.836	0.355	-0.145	
1749	1766186	14329096	0.813	0.379	-0.113	
1750	1759912	14324004	0.813	0.379	-0.113	
1751	1753862	14318624	0.801	0.414	-0.078	
1752	1748083	14313660	0.801	0.414	-0.078	
1753	1742771	14309748	0.801	0.414	-0.078	
1754	1738756	14309624	0.820	0.438	-0.070	
1755	1735232	14307572	0.820	0.438	-0.070	
1756	1732385	14306756	0.879	0.445	-0.082	
1757	1730159	14306396	0.879	0.445	-0.082	
1758	1728655	14307056	0.879	0.445	-0.082	
1759	1727812	14308196	0.824	0.438	-0.047	
1760	1727573	14309768	0.824	0.438	-0.047	
1761	1727728	14311108	0.824	0.438	-0.047	
1762	1728569	14314004	0.824	0.484	-0.020	
1763	1729716	14316072	0.824	0.484	-0.020	
1764	1731594	14320140	0.809	0.523	0.000	
1765	1732342	14317500	0.809	0.523	0.000	
1766	1733899	14321484	0.789	0.570	-0.016	
1767	1735437	14322964	0.789	0.570	-0.016	
1768	1737007	14324632	0.789	0.570	-0.016	
1769	1738832	14327220	0.766	0.602	-0.047	
1770	1740615	14328876	0.766	0.602	-0.047	
1771	1742652	14331676	0.773	0.617	-0.055	
1772	1744811	14334200	0.773	0.617	-0.055	
1773	1747849	14339876	0.773	0.617	-0.055	
1774	1750660	14342008	0.781	0.625	-0.090	
1775	1753347	14344320	0.781	0.625	-0.090	
1776	1755743	14345844	0.781	0.625	-0.152	
1777	1758124	14348180	0.773	0.621	-0.141	
1778	1760269	14349616	0.773	0.621	-0.141	
1779	1762470	14351988	0.773	0.613	-0.203	
1780	1764599	14353900	0.773	0.613	-0.203	
1781	1766653	14355728	0.773	0.613	-0.203	
1782	1768265	14356016	0.738	0.578	-0.250	
1783	1769719	14356996	0.738	0.578	-0.250	
1784	1770770	14356836	0.766	0.523	-0.305	
1785	1771890	14358164	0.766	0.523	-0.305	
1786	1773291	14360408	0.766	0.523	-0.305	
1787	1774827	14362348	0.793	0.480	-0.348	
1788	1776896	14366016	0.793	0.480	-0.348	
1789	1779265	14369284	0.816	0.430	-0.352	
1790	1782447	14374908	0.816	0.430	-0.352	
1791	1786978	14383484	0.816	0.430	-0.352	
1792	1791794	14389156	0.824	0.391	-0.328	
1793	1797270	14396612	0.824	0.391	-0.328	
1794	1803546	14405288	0.883	0.363	-0.289	
1795	1810033	14412408	0.883	0.363	-0.289	
1796	1817433	14422548	0.883	0.363	-0.289	
1797	1824664	14429272	0.926	0.344	-0.227	
1798	1832054	14437136	0.926	0.344	-0.227	
1799	1838646	14441336	0.914	0.324	-0.199	
1800	1844865	14446436	0.914	0.324	-0.199	
1801	1850761	14451364	0.914	0.324	-0.199	
1802	1855451	14452436	0.902	0.309	-0.199	
1803	1859170	14453240	0.902	0.309	-0.199	
1804	1861624	14451900	0.840	0.281	-0.230	
1805	1862928	14449752	0.840	0.281	-0.230	
1806	1863610	14448568	0.840	0.281	-0.230	
1807	1861121	14436568	0.844	0.289	-0.207	
1808	1858171	14432236	0.844	0.289	-0.207	
1809	1854677	14427108	0.832	0.316	-0.195	
1810	1850798	14422076	0.832	0.316	-0.195	
1811	1846013	14414572	0.832	0.316	-0.195	
1812	1840205	14405696	0.809	0.348	-0.188	
1813	1834555	14400520	0.809	0.348	-0.188	
1814	1829029	14395364	0.758	0.359	-0.172	
1815	1823596	14390212	0.758	0.359	-0.172	
1816	1818126	14384628	0.758	0.359	-0.172	
1817	1813361	14381980	0.816	0.352	-0.191	
1818	1809447	14380620	0.816	0.352	-0.191	
1819	1805544	14376748	0.848	0.336	-0.199	
1820	1802441	14376044	0.848	0.336	-0.199	
1821	1799714	14374448	0.848	0.336	-0.199	
1822	1797374	14373268	0.883	0.348	-0.223	
1823	1796008	14374824	0.883	0.348	-0.223	
1824	1794491	14372852	0.883	0.348	-0.223	
1825	1793004	14371456	0.922	0.305	-0.207	
1826	1791825	14371200	0.922	0.305	-0.207	
1827	1790743	14370412	0.949	0.301	-0.203	
1828	1789973	14370576	0.949	0.301	-0.203	
1829	1790065	14373256	0.949	0.301	-0.203	
1830	1790862	14376168	1.020	0.270	-0.270	
1831	1792052	14378536	1.020	0.270	-0.270	
1832	1794144	14383332	1.090	0.230	-0.340	
1833	1797102	14388888	1.090	0.230	-0.340	
1834	1800371	14393092	1.090	0.230	-0.340	
1835	1803072	14394088	1.117	0.168	-0.410	
1836	1804490	14391656	1.117	0.168	-0.410	
1837	1802601	14379848	1.098	0.113	-0.473	
1838	1797621	14365596	1.098	0.113	-0.473	
1839	1791011	14354096	1.098	0.113	-0.473	
1840	1784688	14348632	1.109	0.059	-0.547	
1841	1779441	14346612	1.109	0.059	-0.547	
1842	1774934	14344328	1.035	0.043	-0.563	
1843	1771680	14344832	1.035	0.043	-0.563	
1844	1769946	14347656	1.035	0.043	-0.563	
1845	1769503	14351088	0.945	0.027	-0.559	
1846	1770356	14355828	0.945	0.027	-0.559	
1847	1772406	14361468	0.887	0.027	-0.547	
1848	1775984	14369632	0.887	0.027	-0.547	
1849	1778068	14367232	0.887	0.027	-0.547	
1850	1781321	14373992	0.863	0.023	-0.516	
1851	1784955	14378772	0.863	0.023	-0.516	
1852	1788622	14382536	0.887	0.008	-0.516	
1853	1792452	14386856	0.887	0.008	-0.516	
1854	1796969	14393432	0.887	0.008	-0.516	
1855	1801594	14398384	0.934	-0.008	-0.527	
1856	1806494	14404108	0.934	-0.008	-0.527	
1857	1811290	14408592	0.969	-0.012	-0.465	
1858	1816694	14415820	0.969	-0.012	-0.465	
1859	1822415	14422492	0.969	-0.012	-0.465	
1860	1828021	14427752	0.980	-0.020	-0.418	
1861	1833860	14434292	0.980	-0.020	-0.418	
1862	1839812	14440580	1.016	-0.023	-0.422	
1863	1845743	14446448	1.016	-0.023	-0.422	
1864	1851892	14453252	1.016	-0.023	-0.422	
1865	1857714	14458092	1.047	-0.035	-0.391	
1866	1862953	14461584	1.047	-0.035	-0.391	
1867	1868742	14469024	1.109	-0.031	-0.355	
1868	1873578	14471000	1.109	-0.031	-0.355	
1869	1877612	14472628	1.109	-0.031	-0.355	
1870	1880976	14473980	1.051	-0.020	-0.281	
1871	1883669	14474660	1.051	-0.020	-0.281	
1872	1886033	14476040	1.051	-0.020	-0.281	
1873	1888040	14476976	1.020	-0.023	-0.230	
1874	1890238	14479744	1.020	-0.023	-0.230	
1875	1892334	14481536	1.031	-0.012	-0.195	
1876	1893813	14481164	1.031	-0.012	-0.195	
1877	1895403	14483088	1.031	-0.012	-0.195	
1878	1896581	14483028	1.020	-0.016	-0.141	
1879	1897412	14482820	1.020	-0.016	-0.141	
1880	1897821	14481960	0.977	-0.020	-0.047	
1881	1897888	14481004	0.977	-0.020	-0.047	
1882	1897281	14478372	0.977	-0.020	-0.047	
1883	1897079	14479388	0.902	-0.016	0.008	
1884	1896752	14478684	0.902	-0.016	0.008	
1885	1896972	14480544	0.902	-0.016	0.055	
1886	1897962	14483844	0.902	-0.016	0.055	
1887	1899912	14488676	0.902	-0.016	0.055	
1888	1902393	14492748	0.871	-0.012	0.063	
1889	1905088	14496088	0.871	-0.012	0.063	
1890	1907936	14499392	0.875	-0.016	0.063	
1891	1909620	14497584	0.875	-0.016	0.063	
1892	1911863	14501504	0.875	-0.016	0.063	
1893	1913997	14503312	0.852	-0.012	0.031	
1894	1916345	14506304	0.852	-0.012	0.031	
1895	1918546	14508064	0.859	-0.004	-0.008	
1896	1920481	14509200	0.859	-0.004	-0.008	
1897	1922617	14511940	0.859	-0.004	-0.008	
1898	1924986	14515008	0.938	-0.004	-0.035	
1899	1927328	14517268	0.938	-0.004	-0.035	
1900	1930112	14521376	0.953	-0.020	-0.031	
1901	1932868	14524048	0.953	-0.020	-0.031	
1902	1935668	14526980	0.953	-0.020	-0.031	
1903	1937918	14527580	0.926	-0.004	-0.027	
1904	1939569	14527436	0.926	-0.004	-0.027	
1905	1940563	14526460	0.961	-0.020	-0.035	
1906	1941014	14525280	0.961	-0.020	-0.035	
1907	1941378	14525384	0.961	-0.020	-0.035	
1908	1940798	14521972	0.988	-0.020	-0.074	
1909	1940097	14520908	0.988	-0.020	-0.074	
1910	1939022	14518712	0.992	-0.027	-0.125	
1911	1938645	14520428	0.992	-0.027	-0.125	
1912	1938878	14522492	0.992	-0.027	-0.125	
1913	1939237	14523228	1.012	-0.004	-0.152	
1914	1939916	14524868	1.012	-0.004	-0.152	
1915	1941085	14527504	1.012	-0.004	-0.152	
1916	1942620	14530140	1.012	-0.008	-0.176	
1917	1944510	14533092	1.012	-0.008	-0.176	
1918	1946869	14536860	1.012	-0.004	-0.168	
1919	1949696	14541092	1.012	-0.004	-0.168	
1920	1953210	14546664	1.012	-0.004	-0.168	
1921	1957142	14551852	1.023	0.016	-0.156	
1922	1961723	14558380	1.023	0.016	-0.156	
1923	1966001	14561748	1.055	0.012	-0.152	
1924	1970622	14567400	1.055	0.012	-0.152	
1925	1975069	14571324	1.055	0.012	-0.152	
1926	1978988	14573660	1.043	0.012	-0.117	
1927	1982863	14577400	1.043	0.012	-0.117	
1928	1986798	14581516	1.035	0.020	-0.098	
1929	1990993	14586492	1.035	0.020	-0.098	
1930	1994320	14587216	1.035	0.020	-0.098	
1931	1997360	14589392	1.035	0.035	-0.090	
1932	1999799	14590028	1.035	0.035	-0.090	
1933	1999628	14582028	1.066	0.031	-0.070	
1934	1999631	14582552	1.066	0.031	-0.070	
1935	1998542	14578188	1.066	0.031	-0.070	
1936	1996743	14574260	1.059	0.023	-0.043	
1937	1994548	14570876	1.059	0.023	-0.043	
1938	1990983	14563200	1.070	0.027	-0.012	
1939	1986380	14555484	1.070	0.027	-0.012	
1940	1980860	14547212	1.070	0.027	-0.012	
1941	1973988	14536284	1.066	0.043	0.016	
1942	1966657	14527576	1.066	0.043	0.016	
1943	1959392	14520512	1.027	0.059	0.055	
1944	1951596	14511120	1.027	0.059	0.055	
1945	1942807	14499352	1.027	0.059	0.055	
1946	1933620	14488972	1.012	0.090	0.098	
1947	1924220	14478932	1.012	0.090	0.098	
1948	1915337	14471600	0.945	0.117	0.129	
1949	1906085	14461244	0.945	0.117	0.129	
1950	1897213	14453512	0.945	0.117	0.129	
1951	1888755	14446296	0.891	0.117	0.129	
1952	1881014	14440704	0.891	0.117	0.129	
1953	1874193	14436644	0.914	0.117	0.141	
1954	1868639	14434892	0.914	0.117	0.141	
1955	1863732	14431924	0.914	0.117	0.141	
1956	1859996	14431700	0.957	0.129	0.156	
1957	1857580	14433244	0.957	0.129	0.156	
1958	1856819	14437448	0.992	0.109	0.195	
1959	1856847	14439844	0.992	0.109	0.195	
1960	1857578	14442684	0.992	0.109	0.195	
1961	1858547	14444368	0.875	0.129	0.246	
1962	1858869	14442748	0.875	0.129	0.246	
1963	1858796	14441492	0.875	0.129	0.246	
1964	1858646	14441108	0.820	0.148	0.285	
1965	1858005	14438996	0.820	0.148	0.285	
1966	1857415	14438560	0.801	0.129	0.266	
1967	1856806	14437892	0.801	0.129	0.266	
1968	1856513	14438548	0.801	0.129	0.266	
1969	1856006	14437400	0.797	0.129	0.258	
1970	1855387	14436444	0.797	0.129	0.258	
1971	1854734	14435688	0.793	0.121	0.289	
1972	1853942	14434480	0.793	0.121	0.289	
1973	1853540	14435248	0.793	0.121	0.289	
1974	1854169	14438968	0.801	0.105	0.375	
1975	1853014	14432464	0.801	0.105	0.375	
1976	1852052	14432080	0.785	0.098	0.441	
1977	1851087	14431104	0.785	0.098	0.441	
1978	1850585	14431992	0.785	0.098	0.441	
1979	1850569	14433436	0.758	0.098	0.496	
1980	1851222	14436096	0.758	0.098	0.496	
1981	1852130	14437768	0.797	0.109	0.539	
1982	1853066	14438788	0.797	0.109	0.539	
1983	1854441	14441480	0.797	0.109	0.539	
1984	1856001	14443596	0.859	0.105	0.574	
1985	1857521	14444996	0.859	0.105	0.574	
1986	1858969	14446228	0.863	0.102	0.621	
1987	1860665	14448668	0.863	0.102	0.621	
1988	1861993	14448892	0.863	0.102	0.621	
1989	1863703	14451748	0.813	0.094	0.648	
1990	1864995	14451784	0.813	0.094	0.648	
1991	1866590	14454288	0.746	0.121	0.723	
1992	1868243	14456116	0.746	0.121	0.723	
1993	1870318	14459456	0.746	0.121	0.723	
1994	1872935	14463700	0.770	0.141	0.781	
1995	1875974	14468004	0.770	0.141	0.781	
1996	1879372	14472480	0.789	0.160	0.809	
1997	1882468	14474668	0.789	0.160	0.809	
1998	1885304	14476724	0.789	0.160	0.809	
1999	1888074	14479296	0.762	0.176	0.738	
2000	1891094	14483068	0.762	0.176	0.738	
2001	1894490	14487592	0.738	0.227	0.730	
2002	1898173	14492136	0.738	0.227	0.730	
2003	1902161	14497040	0.738	0.227	0.730	
2004	1906674	14503128	0.711	0.223	0.754	
2005	1911772	14509980	0.711	0.223	0.754	
2006	1916908	14515228	0.652	0.277	0.789	
2007	1922168	14520860	0.652	0.277	0.789	
2008	1926826	14523712	0.652	0.277	0.789	
2009	1932031	14530560	0.633	0.293	0.824	
2010	1938120	14539300	0.633	0.293	0.824	
2011	1944744	14547528	0.668	0.336	0.836	
2012	1952651	14559284	0.668	0.336	0.836	
2013	1961016	14569024	0.668	0.336	0.836	
2014	1969522	14577952	0.648	0.371	0.770	
2015	1978422	14588036	0.648	0.371	0.770	
2016	1987978	14599560	0.637	0.402	0.715	
2017	1996575	14605280	0.637	0.402	0.715	
2018	2005147	14613776	0.637	0.402	0.715	
2019	2013932	14623200	0.602	0.422	0.684	
2020	2022194	14629892	0.602	0.422	0.684	
2021	2029950	14636132	0.543	0.445	0.664	
2022	2036564	14639320	0.543	0.445	0.664	
2023	2042560	14643460	0.543	0.445	0.664	
2024	2047841	14646596	0.516	0.477	0.660	
2025	2052492	14649360	0.516	0.477	0.660	
2026	2056124	14649932	0.453	0.520	0.625	
2027	2058871	14650024	0.453	0.520	0.625	
2028	2060389	14647856	0.453	0.520	0.625	
2029	2060037	14641896	0.363	0.516	0.555	
2030	2058111	14635248	0.363	0.516	0.555	
2031	2055348	14629972	0.363	0.516	0.555	
2032	2051145	14621448	0.328	0.520	0.473	
2033	2045599	14611876	0.328	0.520	0.473	
2034	2039185	14602856	0.289	0.488	0.496	
2035	2032406	14594984	0.289	0.488	0.496	
2036	2025810	14588936	0.289	0.488	0.496	
2037	2019177	14582192	0.305	0.500	0.504	
2038	2013264	14578440	0.305	0.500	0.504	
2039	2008046	14575304	0.328	0.449	0.516	
2040	2003731	14573700	0.328	0.449	0.516	
2041	1999969	14571596	0.328	0.449	0.516	
2042	1996698	14569800	0.375	0.426	0.586	
2043	1994167	14569488	0.375	0.426	0.586	
2044	1992121	14568896	0.344	0.387	0.633	
2045	1990155	14567172	0.344	0.387	0.633	
2046	1988054	14564664	0.344	0.387	0.633	
2047	1985650	14561352	0.258	0.371	0.695	
2048	1983244	14558940	0.258	0.371	0.695	
2049	1981209	14558016	0.246	0.348	0.754	
2050	1979528	14557400	0.246	0.348	0.754	
2051	1978139	14556884	0.246	0.348	0.754	
2052	1976876	14556000	0.289	0.352	0.797	
2053	1975974	14556180	0.289	0.352	0.797	
2054	1975369	14556468	0.406	0.367	0.824	
2055	1974938	14556560	0.406	0.367	0.824	
2056	1974744	14557076	0.406	0.367	0.824	
2057	1974724	14557576	0.484	0.359	0.844	
2058	1974936	14558484	0.484	0.359	0.844	
2059	1974035	14554244	0.449	0.336	0.848	
2060	1973634	14555344	0.449	0.336	0.848	
2061	1972953	14553824	0.449	0.336	0.848	
2062	1972544	14554232	0.441	0.344	0.848	
2063	1972132	14553808	0.441	0.344	0.848	
2064	1971402	14552124	0.402	0.348	0.844	
2065	1970221	14549592	0.402	0.348	0.844	
2066	1969200	14549052	0.402	0.348	0.844	
2067	1968929	14551028	0.422	0.301	0.836	
2068	1968859	14551564	0.422	0.301	0.836	
2069	1968832	14551664	0.395	0.309	0.824	
2070	1968992	14552384	0.395	0.309	0.824	
2071	1968932	14551664	0.395	0.309	0.824	
2072	1970222	14557004	0.391	0.309	0.828	
2073	1972536	14562392	0.391	0.309	0.828	
2074	1974848	14564696	0.398	0.305	0.836	
2075	1977218	14567240	0.398	0.305	0.836	
2076	1979936	14571004	0.398	0.305	0.836	
2077	1983047	14575292	0.363	0.270	0.918	
2078	1985191	14574536	0.363	0.270	0.918	
2079	1987240	14576300	0.363	0.270	0.918	
2080	1989544	14579368	0.344	0.313	0.910	
2081	1992296	14583464	0.344	0.313	0.910	
2082	1994989	14585980	0.313	0.316	0.910	
2083	1998049	14590144	0.313	0.316	0.910	
2084	2001207	14593596	0.313	0.316	0.910	
2085	2004520	14597372	0.301	0.309	0.902	
2086	2007353	14598764	0.301	0.309	0.902	
2087	2010158	14601488	0.285	0.293	0.867	
2088	2012995	14604420	0.285	0.293	0.867	
2089	2015349	14605324	0.285	0.293	0.867	
2090	2017628	14607380	0.270	0.305	0.836	
2091	2020088	14610380	0.270	0.305	0.836	
2092	2023001	14614652	0.281	0.293	0.797	
2093	2026519	14619988	0.281	0.293	0.797	
2094	2030407	14624984	0.281	0.293	0.797	
2095	2034596	14630076	0.391	0.199	0.848	
2096	2038157	14631752	0.391	0.199	0.848	
2097	2040721	14631328	0.398	0.211	0.859	
2098	2042408	14630384	0.398	0.211	0.859	
2099	2043883	14631220	0.398	0.211	0.859	
2100	2045987	14635212	0.367	0.211	0.891	
2101	2046625	14631452	0.367	0.211	0.891	
2102	2047853	14634452	0.305	0.211	0.934	
2103	2049545	14637536	0.305	0.211	0.934	
2104	2051908	14641912	0.305	0.211	0.934	
2105	2054867	14646656	0.238	0.211	0.980	
2106	2057673	14649004	0.238	0.211	0.980	
2107	2060323	14651188	0.172	0.223	0.992	
2108	2062646	14652528	0.172	0.223	0.992	
2109	2064201	14651780	0.172	0.223	0.992	
2110	2065705	14653132	0.148	0.207	0.961	
2111	2066662	14652448	0.148	0.207	0.961	
2112	2066638	14649480	0.207	0.215	0.891	
2113	2065599	14645396	0.207	0.215	0.891	
2114	2063448	14639908	0.207	0.215	0.891	
2115	2060242	14633536	0.293	0.254	0.871	
2116	2056101	14626592	0.293	0.254	0.871	
2117	2051353	14620024	0.383	0.297	0.863	
2118	2046138	14613408	0.383	0.297	0.863	
2119	2041231	14609424	0.383	0.297	0.863	
2120	2036485	14605160	0.406	0.348	0.836	
2121	2031900	14601060	0.406	0.348	0.836	
2122	2027522	14597300	0.406	0.348	0.836	
2123	2023735	14595288	0.383	0.414	0.816	
2124	2020623	14594200	0.383	0.414	0.816	
2125	2017586	14591388	0.355	0.457	0.750	
2126	2014933	14589888	0.355	0.457	0.750	
2127	2012698	14588908	0.355	0.457	0.750	
2128	2010355	14586240	0.379	0.480	0.703	
2129	2008137	14584396	0.379	0.480	0.703	
2130	2005087	14578852	0.449	0.465	0.719	
2131	2000860	14571092	0.449	0.465	0.719	
2132	1996038	14564484	0.449	0.465	0.719	
2133	1990663	14557452	0.488	0.441	0.746	
2134	1984761	14549968	0.488	0.441	0.746	
2135	1978345	14542012	0.488	0.402	0.738	
2136	1971627	14534388	0.488	0.402	0.738	
2137	1964492	14526000	0.488	0.402	0.738	
2138	1957388	14518988	0.520	0.316	0.711	
2139	1950328	14512060	0.520	0.316	0.711	
2140	1943103	14504340	0.535	0.219	0.688	
2141	1936704	14500420	0.535	0.219	0.688	
2142	1931755	14499820	0.535	0.219	0.688	
2143	1927015	14495708	0.516	0.125	0.676	
2144	1924809	14501104	0.516	0.125	0.676	
2145	1923787	14503636	0.512	0.063	0.684	
2146	1924108	14507984	0.512	0.063	0.684	
2147	1925426	14512292	0.512	0.063	0.684	
2148	1927658	14517268	0.551	-0.008	0.652	
2149	1930457	14521768	0.551	-0.008	0.652	
2150	1933884	14527080	0.547	-0.039	0.625	
2151	1937792	14532428	0.547	-0.039	0.625	
2152	1941378	14535048	0.547	-0.039	0.625	
2153	1944687	14537528	0.512	-0.051	0.605	
2154	1948084	14541188	0.512	-0.051	0.605	
2155	1951122	14543148	0.469	-0.066	0.680	
2156	1953944	14545324	0.469	-0.066	0.680	
2157	1956919	14548756	0.469	-0.066	0.680	
2158	1960204	14552972	0.480	-0.074	0.773	
2159	1963928	14558012	0.480	-0.074	0.773	
2160	1968676	14565832	0.477	-0.031	1.066	
2161	1974849	14576280	0.477	-0.031	1.066	
2162	1980864	14581824	0.477	-0.031	1.066	
2163	1985874	14583816	0.684	0.078	1.313	
2164	1989166	14581956	0.684	0.078	1.313	
2165	1990176	14576120	0.422	0.133	1.141	
2166	1988268	14565456	0.422	0.133	1.141	
2167	1983826	14553412	0.422	0.133	1.141	
2168	1978125	14543936	0.234	0.090	0.953	
2169	1973006	14540564	0.234	0.090	0.953	
2170	1967763	14534948	0.234	0.090	0.953	
2171	1963222	14532512	0.285	0.137	0.988	
2172	1961652	14539856	0.285	0.137	0.988	
2173	1961534	14544092	0.348	0.109	0.988	
2174	1962233	14547244	0.348	0.109	0.988	
2175	1962718	14547088	0.348	0.109	0.988	
2176	1961970	14542640	0.262	0.094	0.953	
2177	1959696	14535788	0.262	0.094	0.953	
2178	1956233	14528756	0.152	0.090	0.941	
2179	1950919	14517892	0.152	0.090	0.941	
2180	1943759	14505192	0.152	0.090	0.941	
2181	1936067	14495904	0.191	0.125	0.980	
2182	1928665	14489372	0.191	0.125	0.980	
2183	1921898	14484512	0.180	0.125	0.953	
2184	1916869	14484696	0.180	0.125	0.953	
2185	1910766	14475372	0.180	0.125	0.953	
2186	1906230	14475536	0.238	0.156	0.926	
2187	1903971	14480108	0.238	0.156	0.926	
2188	1903904	14486616	0.289	0.141	0.934	
2189	1905084	14491536	0.289	0.141	0.934	
2190	1907089	14496016	0.289	0.141	0.934	
2191	1909522	14499736	0.293	0.133	0.871	
2192	1913537	14508496	0.293	0.133	0.871	
2193	1917798	14513496	0.188	0.191	0.910	
2194	1922778	14520632	0.188	0.191	0.910	
2195	1929213	14531432	0.188	0.191	0.910	
2196	1937251	14544280	0.176	0.164	0.941	
2197	1945842	14554528	0.176	0.164	0.941	
2198	1954516	14563452	0.152	0.121	0.945	
2199	1962830	14570684	0.152	0.121	0.945	
2200	1970222	14575312	0.152	0.121	0.945	
2201	1976930	14579968	0.172	0.117	0.957	
2202	1983119	14584600	0.172	0.117	0.957	
2203	1988902	14589164	0.160	0.105	0.945	
2204	1993670	14590888	0.160	0.105	0.945	
2205	1998123	14594396	0.160	0.105	0.945	
2206	2002032	14596672	0.148	0.113	0.945	
2207	2005680	14599536	0.148	0.113	0.945	
2208	2008692	14600640	0.164	0.113	0.941	
2209	2011299	14602032	0.164	0.113	0.941	
2210	2013420	14602696	0.164	0.113	0.941	
2211	2015765	14605712	0.164	0.129	0.953	
2212	2018486	14609564	0.164	0.129	0.953	
2213	2020610	14609896	0.164	0.129	0.953	
2214	2022480	14611004	0.191	0.121	0.953	
2215	2024382	14613000	0.191	0.121	0.945	
2216	2026758	14616800	0.203	0.141	0.926	
2217	2028753	14617652	0.203	0.141	0.926	
2218	2030312	14617904	0.203	0.141	0.926	
2219	2031967	14619844	0.203	0.148	0.930	
2220	2032996	14618996	0.203	0.148	0.930	
2221	2034508	14621956	0.203	0.152	0.918	
2222	2035890	14622948	0.203	0.152	0.918	
2223	2036877	14622752	0.203	0.152	0.918	
2224	2038151	14624888	0.207	0.168	0.922	
2225	2039548	14626652	0.207	0.168	0.922	
2226	2041404	14629884	0.234	0.180	0.914	
2227	2041973	14626592	0.234	0.180	0.914	
2228	2042805	14628216	0.234	0.242	0.910	
2229	2043710	14629340	0.262	0.191	0.910	
2230	2044708	14630616	0.262	0.191	0.910	
2231	2045946	14632572	0.266	0.184	0.914	
2232	2047586	14635420	0.266	0.184	0.914	
2233	2048936	14635900	0.266	0.184	0.914	
2234	2050351	14637508	0.285	0.191	0.898	
2235	2051278	14636972	0.285	0.191	0.898	
2236	2052768	14640152	0.289	0.180	0.898	
2237	2054215	14641468	0.289	0.180	0.898	
2238	2055614	14642724	0.289	0.180	0.898	
2239	2057015	14644132	0.277	0.188	0.895	
2240	2058752	14646876	0.277	0.188	0.895	
2241	2060867	14650124	0.273	0.164	0.906	
2242	2062830	14651632	0.273	0.164	0.906	
2243	2064733	14653356	0.273	0.164	0.906	
2244	2066883	14656248	0.277	0.168	0.918	
2245	2068692	14657032	0.277	0.168	0.918	
2246	2070389	14658392	0.277	0.145	0.930	
2247	2071469	14657624	0.277	0.145	0.930	
2248	2072530	14658628	0.277	0.145	0.930	
2249	2073454	14659140	0.258	0.164	0.922	
2250	2074665	14661212	0.258	0.164	0.922	
2251	2075928	14662632	0.242	0.148	0.910	
2252	2076848	14662520	0.242	0.148	0.910	
2253	2077811	14663612	0.242	0.148	0.910	
2254	2078884	14665016	0.246	0.145	0.918	
2255	2080130	14666780	0.246	0.145	0.918	
2256	2081497	14668512	0.254	0.160	0.898	
2257	2082799	14669620	0.254	0.160	0.898	
2258	2083994	14670492	0.254	0.160	0.898	
2259	2085378	14672444	0.266	0.160	0.895	
2260	2086958	14674612	0.266	0.160	0.895	
2261	2088007	14674068	0.266	0.160	0.895	
2262	2089107	14675320	0.258	0.164	0.914	
2263	2090468	14677464	0.258	0.164	0.914	
2264	2092079	14679824	0.266	0.148	0.926	
2265	2093497	14680664	0.266	0.148	0.926	
2266	2094866	14681888	0.266	0.148	0.926	
2267	2095912	14681964	0.281	0.156	0.914	
2268	2097555	14685396	0.281	0.156	0.914	
2269	2097458	14680080	0.281	0.152	0.898	
2270	2098412	14684188	0.281	0.152	0.898	
2271	2099947	14687464	0.285	0.156	0.898	
2272	2101359	14688508	0.285	0.156	0.898	
2273	2102562	14689084	0.285	0.156	0.898	
2274	2103399	14688824	0.285	0.156	0.898	
2275	2104210	14689556	0.285	0.156	0.898	
2276	2105038	14690436	0.285	0.156	0.898	
2277	2106104	14692216	0.281	0.160	0.934	
2278	2107413	14694252	0.281	0.160	0.934	
2279	2108921	14696360	0.273	0.145	0.938	
2280	2110176	14696856	0.273	0.145	0.938	
2281	2111251	14697388	0.273	0.145	0.938	
2282	2112593	14699532	0.277	0.145	0.922	
2283	2113542	14699304	0.277	0.145	0.922	
2284	2114388	14699840	0.277	0.152	0.918	
2285	2115680	14702468	0.277	0.152	0.918	
2286	2116966	14703736	0.277	0.152	0.918	
2287	2118376	14705520	0.273	0.152	0.914	
2288	2119472	14705672	0.273	0.152	0.914	
2289	2120231	14705420	0.270	0.148	0.918	
2290	2121166	14706884	0.270	0.148	0.918	
2291	2121766	14706480	0.270	0.148	0.918	
2292	2122933	14709348	0.273	0.156	0.922	
2293	2124290	14711276	0.273	0.156	0.922	
2294	2125680	14712764	0.273	0.160	0.930	
2295	2126876	14713376	0.273	0.160	0.930	
2296	2128135	14714824	0.273	0.160	0.930	
2297	2129528	14716620	0.273	0.164	0.930	
2298	2130918	14718000	0.273	0.164	0.930	
2299	2131979	14718076	0.277	0.152	0.918	
2300	2133207	14719804	0.277	0.152	0.918	
2301	2134587	14721640	0.277	0.152	0.918	
2302	2135709	14721988	0.277	0.148	0.910	
2303	2137129	14724304	0.277	0.148	0.910	
2304	2138423	14725220	0.254	0.141	0.914	
2305	2139669	14726320	0.254	0.141	0.914	
2306	2140921	14727592	0.254	0.141	0.914	
2307	2142217	14729020	0.242	0.152	0.922	
2308	2143224	14729160	0.242	0.152	0.922	
2309	2144103	14729652	0.242	0.152	0.922	
2310	2145969	14734480	0.227	0.152	0.934	
2311	2146353	14730420	0.227	0.152	0.934	
2312	2147025	14731956	0.242	0.164	0.922	
2313	2147173	14730532	0.242	0.164	0.922	
2314	2147780	14732516	0.262	0.176	0.914	
2315	2148124	14732068	0.262	0.176	0.914	
2316	2148540	14732700	0.262	0.176	0.914	
2317	2149273	14734384	0.277	0.180	0.918	
2318	2149972	14734984	0.277	0.180	0.918	
2319	2150456	14734820	0.289	0.160	0.930	
2320	2150777	14734652	0.289	0.160	0.930	
2321	2151265	14735644	0.289	0.160	0.930	
2322	2152030	14737240	0.289	0.164	0.910	
2323	2152584	14737160	0.289	0.164	0.910	
2324	2154105	14741580	0.289	0.164	0.910	
2325	2156768	14747672	0.285	0.164	0.910	
2326	2159143	14749180	0.285	0.164	0.910	
2327	2161425	14751184	0.258	0.172	0.926	
2328	2164264	14755696	0.258	0.172	0.926	
2329	2166947	14757908	0.258	0.172	0.926	
2330	2169978	14761984	0.270	0.141	0.938	
2331	2173204	14765796	0.270	0.141	0.938	
2332	2176241	14768264	0.266	0.141	0.926	
2333	2179307	14771420	0.266	0.141	0.926	
2334	2182511	14775036	0.266	0.141	0.926	
2335	2185766	14778444	0.234	0.145	0.926	
2336	2188577	14779924	0.234	0.145	0.926	
2337	2191446	14782968	0.227	0.137	0.953	
2338	2194054	14784792	0.227	0.137	0.953	
2339	2196811	14787996	0.227	0.137	0.953	
2340	2200022	14792568	0.219	0.137	0.934	
2341	2203168	14795520	0.219	0.137	0.934	
2342	2206209	14798244	0.195	0.105	0.945	
2343	2208994	14800264	0.195	0.105	0.945	
2344	2212081	14804256	0.195	0.105	0.945	
2345	2214980	14806592	0.246	0.082	0.930	
2346	2217990	14809932	0.246	0.082	0.930	
2347	2220783	14812076	0.211	0.125	0.895	
2348	2223609	14815000	0.211	0.125	0.895	
2349	2226502	14818096	0.211	0.125	0.895	
2350	2229555	14821628	0.234	0.102	0.918	
2351	2232165	14822908	0.234	0.102	0.918	
2352	2235640	14828980	0.215	0.117	0.914	
2353	2237809	14827228	0.215	0.117	0.914	
2354	2240301	14830692	0.215	0.117	0.914	
2355	2242935	14833752	0.199	0.133	0.910	
2356	2245773	14837200	0.199	0.133	0.910	
2357	2248676	14840300	0.207	0.156	0.922	
2358	2252360	14846324	0.207	0.156	0.922	
2359	2255519	14847908	0.207	0.156	0.922	
2360	2258679	14851072	0.207	0.168	0.914	
2361	2261363	14852328	0.207	0.168	0.914	
2362	2264241	14855788	0.223	0.180	0.914	
2363	2266750	14857192	0.223	0.180	0.914	
2364	2269152	14859272	0.223	0.180	0.914	
2365	2271407	14861084	0.246	0.188	0.938	
2366	2273455	14862512	0.246	0.188	0.938	
2367	2275715	14865408	0.246	0.188	0.938	
2368	2278000	14867768	0.328	0.160	0.992	
2369	2280317	14870180	0.328	0.160	0.992	
2370	2282273	14871056	0.348	0.164	1.000	
2371	2284053	14872308	0.348	0.164	1.000	
2372	2285905	14874376	0.348	0.164	1.000	
2373	2287204	14874016	0.258	0.117	0.945	
2374	2288050	14873500	0.258	0.117	0.945	
2375	2289056	14874988	0.207	0.113	0.867	
2376	2289315	14873004	0.207	0.113	0.867	
2377	2289277	14872076	0.207	0.113	0.867	
2378	2288971	14870968	0.191	0.121	0.859	
2379	2288632	14870528	0.191	0.121	0.859	
2380	2288019	14869092	0.164	0.164	0.867	
2381	2286987	14866804	0.164	0.164	0.867	
2382	2285922	14865640	0.164	0.164	0.867	
2383	2284623	14863640	0.145	0.172	0.898	
2384	2283650	14863644	0.145	0.172	0.898	
2385	2282534	14862100	0.156	0.180	0.930	
2386	2281065	14859572	0.156	0.180	0.930	
2387	2280122	14860208	0.156	0.180	0.930	
2388	2279178	14859260	0.176	0.184	0.934	
2389	2278430	14859100	0.176	0.184	0.934	
2390	2278040	14859784	0.211	0.184	0.914	
2391	2277597	14859180	0.211	0.184	0.914	
2392	2277099	14858520	0.211	0.184	0.914	
2393	2276309	14856852	0.234	0.191	0.922	
2394	2275886	14857532	0.234	0.191	0.922	
2395	2273859	14850692	0.289	0.203	0.945	
2396	2272239	14850292	0.289	0.203	0.945	
2397	2270529	14848312	0.289	0.203	0.945	
2398	2268647	14845916	0.254	0.176	0.953	
2399	2266548	14843164	0.254	0.176	0.953	
2400	2264002	14839276	0.273	0.168	0.977	
2401	2261523	14837000	0.273	0.168	0.977	
2402	2258611	14832788	0.273	0.168	0.977	
2403	2255584	14829416	0.266	0.211	0.980	
2404	2252808	14827392	0.266	0.211	0.980	
2405	2250077	14824796	0.234	0.223	0.922	
2406	2247477	14822592	0.234	0.223	0.922	
2407	2245027	14820592	0.234	0.223	0.922	
2408	2242823	14819124	0.180	0.211	0.883	
2409	2240688	14817196	0.180	0.211	0.883	
2410	2238499	14814844	0.152	0.199	0.855	
2411	2235959	14811252	0.152	0.199	0.855	
2412	2233486	14808980	0.152	0.199	0.855	
2413	2230987	14806404	0.137	0.195	0.848	
2414	2228849	14805348	0.137	0.195	0.848	
2415	2226516	14802432	0.137	0.195	0.848	
2416	2224253	14800376	0.121	0.195	0.859	
2417	2221778	14797268	0.121	0.195	0.859	
2418	2219676	14796284	0.113	0.199	0.855	
2419	2218102	14796292	0.113	0.199	0.855	
2420	2216629	14795124	0.113	0.199	0.855	
2421	2215334	14794364	0.121	0.195	0.855	
2422	2214460	14794752	0.121	0.195	0.855	
2423	2213399	14793128	0.156	0.195	0.867	
2424	2212584	14793052	0.156	0.195	0.867	
2425	2212322	14794448	0.156	0.195	0.867	
2426	2212716	14796812	0.148	0.137	0.887	
2427	2213762	14799812	0.148	0.137	0.887	
2428	2214584	14799964	0.203	0.191	0.926	
2429	2215574	14801456	0.203	0.191	0.926	
2430	2216579	14802508	0.203	0.191	0.926	
2431	2218193	14805948	0.234	0.207	0.961	
2432	2219702	14807144	0.234	0.207	0.961	
2433	2221364	14809264	0.230	0.211	0.945	
2434	2223184	14811556	0.230	0.211	0.945	
2435	2225149	14813956	0.230	0.211	0.945	
2436	2228132	14819996	0.227	0.219	0.914	
2437	2229919	14818192	0.227	0.219	0.914	
2438	2231796	14820340	0.199	0.230	0.891	
2439	2233819	14822800	0.199	0.230	0.891	
2440	2235975	14825356	0.199	0.230	0.891	
2441	2238112	14827436	0.164	0.250	0.875	
2442	2240507	14830604	0.164	0.250	0.875	
2443	2242981	14833316	0.137	0.250	0.875	
2444	2245863	14837424	0.137	0.250	0.875	
2445	2248418	14838996	0.137	0.250	0.875	
2446	2251339	14843016	0.137	0.234	0.895	
2447	2254351	14846300	0.137	0.234	0.895	
2448	2257745	14850840	0.172	0.230	0.918	
2449	2260445	14851460	0.172	0.230	0.918	
2450	2263160	14854220	0.172	0.230	0.918	
2451	2266145	14858012	0.191	0.207	0.941	
2452	2269244	14861456	0.191	0.207	0.941	
2453	2272551	14865384	0.215	0.195	0.965	
2454	2275673	14867952	0.215	0.195	0.965	
2455	2278831	14871220	0.215	0.195	0.965	
2456	2281993	14874392	0.230	0.191	0.965	
2457	2285302	14878144	0.230	0.191	0.965	
2458	2288474	14880904	0.238	0.188	0.938	
2459	2291581	14883816	0.238	0.188	0.938	
2460	2294094	14884548	0.238	0.188	0.938	
2461	2296880	14888152	0.227	0.188	0.934	
2462	2299603	14890684	0.227	0.188	0.934	
2463	2302329	14893420	0.227	0.188	0.934	
2464	2304566	14894192	0.211	0.203	0.934	
2465	2306850	14896616	0.211	0.203	0.934	
2466	2309332	14899692	0.211	0.207	0.930	
2467	2311651	14901520	0.211	0.207	0.930	
2468	2313751	14902964	0.211	0.207	0.930	
2469	2315624	14904156	0.215	0.199	0.910	
2470	2317725	14906940	0.215	0.199	0.910	
2471	2319449	14907536	0.211	0.184	0.902	
2472	2321325	14909868	0.211	0.184	0.902	
2473	2323170	14911620	0.211	0.184	0.902	
2474	2325161	14914048	0.172	0.176	0.902	
2475	2328061	14919676	0.172	0.176	0.902	
2476	2330065	14918992	0.188	0.164	0.926	
2477	2332057	14920948	0.188	0.164	0.926	
2478	2334858	14926176	0.188	0.164	0.926	
2479	2336245	14923320	0.199	0.148	0.941	
2480	2338829	14929496	0.199	0.148	0.941	
2481	2341579	14932744	0.242	0.148	0.938	
2482	2344445	14935956	0.242	0.148	0.938	
2483	2346868	14937052	0.242	0.148	0.938	
2484	2349293	14939480	0.238	0.160	0.969	
2485	2351966	14942900	0.238	0.160	0.969	
2486	2354172	14943704	0.180	0.180	0.961	
2487	2356160	14945036	0.180	0.180	0.961	
2488	2357702	14945240	0.180	0.180	0.961	
2489	2359055	14946028	0.148	0.227	0.961	
2490	2360158	14946380	0.148	0.227	0.961	
2491	2360900	14946040	0.164	0.297	0.930	
2492	2361948	14948004	0.164	0.297	0.930	
2493	2363123	14949560	0.164	0.297	0.930	
2494	2364748	14952536	0.168	0.320	0.891	
2495	2366743	14955640	0.168	0.320	0.891	
2496	2368972	14958572	0.195	0.328	0.910	
2497	2371213	14960848	0.195	0.328	0.910	
2498	2373773	14964368	0.195	0.328	0.910	
2499	2375908	14965228	0.199	0.289	0.922	
2500	2377855	14966608	0.199	0.289	0.922	
2501	2379699	14968144	0.207	0.234	0.906	
2502	2381842	14971184	0.207	0.234	0.906	
2503	2384110	14973828	0.207	0.234	0.906	
2504	2386799	14977780	0.227	0.211	0.910	
2505	2389481	14980440	0.227	0.211	0.910	
2506	2392336	14983816	0.227	0.211	0.910	
2507	2395088	14986256	0.219	0.203	0.926	
2508	2398061	14989892	0.219	0.203	0.926	
2509	2400724	14991628	0.219	0.211	0.938	
2510	2403165	14993400	0.219	0.211	0.938	
2511	2405781	14996544	0.219	0.211	0.938	
2512	2408686	15000316	0.215	0.180	0.934	
2513	2411777	15003964	0.215	0.180	0.934	
2514	2415262	15008632	0.219	0.152	0.918	
2515	2418647	15011716	0.219	0.152	0.918	
2516	2421351	15012376	0.219	0.152	0.918	
2517	2423513	15012912	0.191	0.156	0.902	
2518	2425585	15014716	0.191	0.156	0.902	
2519	2427501	15016164	0.172	0.156	0.895	
2520	2429555	15018632	0.172	0.156	0.895	
2521	2429535	15012388	0.172	0.156	0.895	
2522	2430040	15014468	0.172	0.152	0.875	
2523	2430686	15015536	0.172	0.152	0.875	
2524	2431210	15015696	0.180	0.176	0.895	
2525	2431534	15015420	0.180	0.176	0.895	
2526	2431483	15014244	0.180	0.176	0.895	
2527	2430781	15011588	0.188	0.211	0.930	
2528	2429713	15009424	0.188	0.211	0.930	
2529	2428966	15009640	0.191	0.238	0.945	
2530	2428473	15009908	0.191	0.238	0.945	
2531	2427745	15008476	0.191	0.238	0.945	
2532	2427148	15008272	0.215	0.262	0.957	
2533	2426422	15007156	0.215	0.262	0.957	
2534	2426160	15008288	0.211	0.250	0.953	
2535	2426086	15008776	0.211	0.250	0.953	
2536	2426091	15009020	0.211	0.250	0.953	
2537	2426308	15009872	0.172	0.242	0.930	
2538	2426126	15008492	0.172	0.242	0.930	
2539	2425791	15007700	0.141	0.227	0.934	
2540	2425522	15007628	0.141	0.227	0.934	
2541	2425177	15007056	0.141	0.227	0.934	
2542	2424662	15006032	0.121	0.227	0.922	
2543	2424357	15006356	0.121	0.227	0.922	
2544	2423612	15004292	0.086	0.203	0.898	
2545	2422871	15003560	0.086	0.203	0.898	
2546	2422663	15004952	0.086	0.203	0.898	
2547	2422298	15004116	0.180	0.188	0.879	
2548	2422020	15004100	0.180	0.188	0.879	
2549	2421742	15003820	0.246	0.148	0.922	
2550	2421540	15003848	0.246	0.148	0.922	
2551	2420998	15002284	0.246	0.148	0.922	
2552	2420115	15000380	0.262	0.148	0.934	
2553	2419029	14998684	0.262	0.148	0.934	
2554	2417686	14996572	0.262	0.148	0.934	
2555	2416285	14994996	0.258	0.172	0.906	
2556	2414395	14991640	0.258	0.172	0.906	
2557	2412959	14991564	0.250	0.180	0.910	
2558	2412028	14992148	0.250	0.180	0.910	
2559	2411011	14990872	0.250	0.180	0.910	
2560	2409652	14988488	0.262	0.195	0.906	
2561	2408265	14987016	0.262	0.195	0.906	
2562	2407430	14987840	0.270	0.219	0.902	
2563	2405344	14982000	0.270	0.219	0.902	
2564	2403220	14979760	0.258	0.230	0.887	
2565	2401792	14980420	0.258	0.230	0.887	
2566	2401212	14982384	0.258	0.230	0.887	
2567	2400322	14980564	0.230	0.219	0.883	
2568	2399836	14981292	0.230	0.219	0.883	
2569	2399376	14980908	0.230	0.219	0.883	
2570	2399006	14980808	0.207	0.207	0.875	
2571	2398767	14980964	0.207	0.207	0.875	
2572	2398472	14980500	0.195	0.195	0.891	
2573	2398251	14980500	0.195	0.195	0.891	
2574	2398566	14982424	0.195	0.195	0.891	
2575	2399100	14983616	0.203	0.188	0.898	
2576	2400033	14985744	0.203	0.188	0.898	
2577	2401102	14987224	0.203	0.184	0.906	
2578	2402472	14989496	0.203	0.184	0.906	
2579	2403731	14990420	0.203	0.184	0.906	
2580	2405482	14993648	0.219	0.191	0.906	
2581	2406883	14994000	0.219	0.191	0.906	
2582	2408497	14996252	0.227	0.195	0.914	
2583	2409700	14996224	0.227	0.195	0.914	
2584	2411157	14998440	0.227	0.195	0.914	
2585	2412963	15001296	0.230	0.207	0.922	
2586	2414415	15001684	0.230	0.207	0.922	
2587	2416034	15003804	0.250	0.215	0.914	
2588	2417658	15005444	0.250	0.215	0.914	
2589	2419365	15007400	0.250	0.215	0.914	
2590	2421243	15009792	0.258	0.211	0.926	
2591	2422870	15010664	0.258	0.211	0.926	
2592	2424871	15013788	0.270	0.195	0.949	
2593	2426273	15013392	0.270	0.195	0.949	
2594	2427910	15015736	0.270	0.195	0.949	
2595	2429572	15017472	0.293	0.188	0.941	
2596	2431394	15019772	0.293	0.188	0.941	
2597	2433331	15022056	0.293	0.219	0.930	
2598	2435041	15023084	0.293	0.219	0.930	
2599	2436761	15024836	0.293	0.219	0.930	
2600	2437998	15024624	0.328	0.238	0.938	
2601	2439389	15026476	0.328	0.238	0.938	
2602	2440260	15025788	0.309	0.262	0.914	
2603	2440884	15025668	0.309	0.262	0.914	
2604	2441481	15026184	0.309	0.262	0.914	
2605	2440678	15021184	0.313	0.246	0.918	
2606	2440881	15024404	0.313	0.246	0.918	
2607	2441036	15024416	0.313	0.273	0.910	
2608	2440731	15022728	0.313	0.273	0.910	
2609	2440195	15021500	0.313	0.273	0.910	
2610	2439370	15019808	0.297	0.270	0.910	
2611	2438128	15017316	0.297	0.270	0.910	
2612	2436123	15013020	0.305	0.277	0.918	
2613	2433810	15009784	0.305	0.277	0.918	
2614	2431190	15006244	0.305	0.277	0.918	
2615	2428056	15001568	0.273	0.266	0.887	
2616	2424684	14997480	0.273	0.266	0.887	
2617	2421123	14993352	0.250	0.250	0.832	
2618	2417342	14988912	0.250	0.250	0.832	
2619	2412688	14981640	0.250	0.250	0.832	
2620	2407472	14974736	0.258	0.254	0.816	
2621	2401870	14967976	0.258	0.254	0.816	
2622	2395847	14960692	0.258	0.254	0.816	
2623	2389737	14954320	0.293	0.258	0.824	
2624	2383496	14947688	0.293	0.258	0.824	
2625	2377243	14941396	0.293	0.258	0.820	
2626	2370823	14934476	0.293	0.258	0.820	
2627	2364077	14926752	0.293	0.258	0.820	
2628	2356675	14917384	0.273	0.254	0.828	
2629	2349561	14911132	0.273	0.254	0.828	
2630	2343381	14907756	0.289	0.270	0.832	
2631	2337489	14902728	0.289	0.270	0.832	
2632	2331877	14897956	0.289	0.270	0.832	
2633	2326676	14893988	0.320	0.285	0.813	
2634	2322310	14892124	0.320	0.285	0.813	
2635	2318358	14889416	0.340	0.289	0.820	
2636	2314330	14885160	0.340	0.289	0.820	
2637	2310700	14882724	0.340	0.289	0.820	
2638	2307270	14879892	0.340	0.277	0.848	
2639	2304121	14877588	0.340	0.277	0.848	
2640	2301223	14875444	0.359	0.250	0.867	
2641	2298266	14872308	0.359	0.250	0.867	
2642	2295622	14870604	0.359	0.250	0.867	
2643	2293655	14870668	0.375	0.246	0.863	
2644	2291984	14869884	0.375	0.246	0.863	
2645	2290332	14868288	0.387	0.246	0.883	
2646	2289024	14868012	0.387	0.246	0.883	
2647	2286161	14860484	0.387	0.246	0.883	
2648	2283919	14860108	0.395	0.246	0.863	
2649	2281819	14858432	0.395	0.246	0.863	
2650	2280090	14857816	0.391	0.238	0.855	
2651	2278299	14855840	0.391	0.238	0.855	
2652	2276581	14854340	0.391	0.238	0.855	
2653	2274622	14851660	0.406	0.242	0.855	
2654	2272377	14848556	0.406	0.242	0.855	
2655	2270249	14846780	0.414	0.242	0.848	
2656	2268052	14844376	0.414	0.242	0.848	
2657	2265987	14842704	0.414	0.242	0.848	
2658	2263597	14839340	0.406	0.242	0.848	
2659	2261094	14836500	0.406	0.242	0.848	
2660	2258721	14834516	0.398	0.246	0.852	
2661	2256524	14832848	0.398	0.246	0.852	
2662	2254171	14830024	0.398	0.246	0.852	
2663	2251242	14825368	0.379	0.246	0.848	
2664	2248128	14821700	0.379	0.246	0.848	
2665	2245175	14819228	0.355	0.242	0.828	
2666	2241892	14814956	0.355	0.242	0.828	
2667	2239222	14814124	0.355	0.242	0.828	
2668	2236346	14810632	0.344	0.246	0.820	
2669	2233407	14807504	0.344	0.246	0.820	
2670	2230937	14806440	0.344	0.246	0.820	
2671	2228765	14805164	0.359	0.219	0.816	
2672	2227128	14805132	0.359	0.219	0.816	
2673	2226095	14805908	0.352	0.207	0.828	
2674	2225642	14807196	0.352	0.207	0.828	
2675	2225033	14806120	0.352	0.207	0.828	
2676	2225205	14808636	0.336	0.191	0.871	
2677	2225321	14808584	0.336	0.191	0.871	
2678	2225998	14810944	0.320	0.145	0.949	
2679	2227210	14813760	0.320	0.145	0.949	
2680	2229019	14817360	0.320	0.145	0.949	
2681	2231318	14821128	0.336	0.105	0.977	
2682	2233571	14823244	0.336	0.105	0.977	
2683	2235911	14825844	0.387	0.086	0.945	
2684	2238965	14831040	0.387	0.086	0.945	
2685	2242476	14835924	0.387	0.086	0.945	
2686	2245900	14839084	0.363	0.094	0.941	
2687	2248658	14839844	0.363	0.094	0.941	
2688	2251563	14843192	0.355	0.102	0.926	
2689	2252697	14839012	0.355	0.102	0.926	
2690	2254581	14843148	0.355	0.102	0.926	
2691	2257595	14849552	0.371	0.125	0.898	
2692	2260489	14852084	0.371	0.125	0.898	
2693	2263010	14853488	0.379	0.145	0.875	
2694	2265708	14856716	0.379	0.145	0.875	
2695	2268466	14859652	0.379	0.145	0.875	
2696	2271455	14863336	0.359	0.152	0.875	
2697	2274065	14864808	0.359	0.152	0.875	
2698	2276759	14867756	0.352	0.156	0.887	
2699	2279980	14872556	0.352	0.156	0.887	
2700	2283073	14875264	0.352	0.156	0.887	
2701	2286235	14878636	0.352	0.156	0.879	
2702	2289485	14882148	0.352	0.156	0.879	
2703	2292845	14885840	0.359	0.176	0.875	
2704	2296501	14890384	0.359	0.176	0.875	
2705	2300051	14893616	0.359	0.176	0.875	
2706	2303617	14897228	0.359	0.176	0.875	
2707	2307189	14900820	0.359	0.176	0.875	
2708	2310573	14903640	0.340	0.164	0.883	
2709	2314698	14909988	0.340	0.164	0.883	
2710	2318322	14912108	0.340	0.164	0.883	
2711	2321694	14914724	0.348	0.164	0.883	
2712	2325403	14919444	0.348	0.164	0.883	
2713	2329380	14924224	0.348	0.164	0.883	
2714	2332718	14925644	0.348	0.156	0.895	
2715	2336016	14928824	0.348	0.156	0.895	
2716	2339395	14932444	0.336	0.148	0.910	
2717	2343066	14936992	0.336	0.148	0.910	
2718	2346828	14941028	0.336	0.148	0.910	
2719	2350322	14943716	0.316	0.156	0.902	
2720	2354014	14948004	0.316	0.156	0.902	
2721	2357169	14949548	0.316	0.168	0.879	
2722	2360593	14953780	0.316	0.168	0.879	
2723	2364032	14957264	0.316	0.168	0.879	
2724	2367112	14959264	0.316	0.168	0.887	
2725	2370825	14964876	0.316	0.168	0.887	
2726	2374196	14967224	0.320	0.176	0.891	
2727	2377557	14970552	0.320	0.176	0.891	
2728	2380769	14973320	0.320	0.176	0.891	
2729	2383770	14975688	0.297	0.168	0.895	
2730	2387623	14982096	0.297	0.168	0.895	
2731	2389991	14980008	0.305	0.168	0.914	
2732	2393097	14985328	0.305	0.168	0.914	
2733	2396604	14990040	0.305	0.168	0.914	
2734	2400312	14994348	0.301	0.184	0.922	
2735	2403794	14997152	0.301	0.184	0.922	
2736	2408001	15003536	0.309	0.191	0.922	
2737	2411802	15006120	0.309	0.191	0.922	
2738	2415680	15010228	0.309	0.191	0.922	
2739	2419631	15014396	0.289	0.199	0.902	
2740	2423949	15019816	0.289	0.199	0.902	
2741	2428230	15023988	0.313	0.152	0.914	
2742	2432705	15029044	0.313	0.152	0.914	
2743	2437108	15033232	0.313	0.152	0.914	
2744	2441130	15036108	0.285	0.121	0.871	
2745	2445336	15040868	0.285	0.121	0.871	
2746	2448866	15042368	0.063	0.090	0.836	
2747	2452260	15045356	0.063	0.090	0.836	
2748	2455848	15049524	0.063	0.090	0.836	
2749	2459391	15052932	0.195	0.180	0.879	
2750	2463123	15057232	0.195	0.180	0.879	
2751	2466808	15060776	0.207	0.121	0.906	
2752	2471353	15067900	0.207	0.121	0.906	
2753	2475349	15070252	0.207	0.121	0.906	
2754	2479277	15073976	0.457	0.148	0.934	
2755	2482298	15074276	0.457	0.148	0.934	
2756	2484286	15073164	0.547	0.109	0.867	
2757	2485183	15070788	0.547	0.109	0.867	
2758	2485485	15069304	0.547	0.109	0.867	
2759	2485222	15067348	0.523	0.164	0.863	
2760	2484897	15066836	0.523	0.164	0.863	
2761	2484135	15064764	0.523	0.164	0.863	
2762	2483832	15065836	0.480	0.168	0.855	
2763	2484501	15069420	0.480	0.168	0.855	
2764	2485478	15071324	0.422	0.160	0.859	
2765	2486966	15074344	0.422	0.160	0.859	
2766	2488522	15076104	0.422	0.160	0.859	
2767	2490181	15078072	0.316	0.160	0.879	
2768	2492121	15080856	0.316	0.160	0.879	
2769	2494387	15084100	0.305	0.125	0.898	
2770	2497056	15087976	0.305	0.125	0.898	
2771	2499930	15091464	0.305	0.125	0.898	
2772	2502761	15094168	0.305	0.121	0.910	
2773	2504565	15092892	0.305	0.121	0.910	
2774	2507133	15097752	0.320	0.125	0.898	
2775	2510090	15101876	0.320	0.125	0.898	
2776	2513144	15105220	0.320	0.125	0.898	
2777	2515727	15106388	0.352	0.145	0.895	
2778	2517701	15106536	0.352	0.145	0.895	
2779	2519479	15107728	0.375	0.152	0.906	
2780	2521041	15108640	0.375	0.152	0.906	
2781	2522296	15108976	0.375	0.152	0.906	
2782	2523122	15108512	0.371	0.145	0.898	
2783	2523962	15109396	0.371	0.145	0.898	
2784	2524692	15109796	0.355	0.141	0.891	
2785	2525127	15109344	0.355	0.141	0.891	
2786	2524928	15107244	0.355	0.141	0.891	
2787	2524480	15106048	0.359	0.117	0.871	
2788	2523888	15105024	0.359	0.117	0.871	
2789	2521841	15098612	0.379	0.105	0.863	
2790	2519629	15095908	0.379	0.105	0.863	
2791	2517247	15093016	0.379	0.105	0.863	
2792	2514757	15090200	0.367	0.117	0.871	
2793	2512273	15087736	0.367	0.117	0.871	
2794	2509949	15085892	0.387	0.109	0.871	
2795	2507172	15081756	0.387	0.109	0.871	
2796	2505161	15082040	0.387	0.109	0.871	
2797	2503566	15081696	0.383	0.125	0.867	
2798	2501820	15079496	0.383	0.125	0.867	
2799	2500534	15079588	0.387	0.141	0.875	
2800	2499167	15077980	0.387	0.141	0.875	
2801	2498248	15078404	0.387	0.141	0.875	
2802	2497208	15077000	0.371	0.145	0.871	
2803	2496089	15075644	0.371	0.145	0.871	
2804	2495187	15075396	0.371	0.145	0.871	
2805	2494991	15077316	0.371	0.172	0.871	
2806	2494352	15075348	0.371	0.172	0.871	
2807	2494214	15076712	0.383	0.195	0.883	
2808	2494221	15077156	0.383	0.195	0.883	
2809	2494769	15079328	0.383	0.195	0.883	
2810	2494939	15078364	0.395	0.199	0.883	
2811	2495167	15078764	0.395	0.199	0.883	
2812	2495471	15079296	0.398	0.191	0.887	
2813	2495693	15079272	0.398	0.191	0.887	
2814	2496440	15081596	0.391	0.180	0.895	
2815	2496076	15077896	0.391	0.180	0.895	
2816	2496429	15080400	0.391	0.180	0.895	
2817	2496926	15081332	0.375	0.152	0.883	
2818	2497747	15083124	0.375	0.152	0.883	
2819	2498898	15085264	0.375	0.152	0.883	
2820	2500358	15087652	0.367	0.145	0.883	
2821	2501679	15088556	0.367	0.145	0.887	
2822	2503292	15091044	0.359	0.145	0.895	
2823	2504547	15091224	0.359	0.145	0.895	
2824	2505622	15091760	0.359	0.145	0.895	
2825	2506794	15093224	0.367	0.129	0.887	
2826	2508330	15095852	0.367	0.129	0.887	
2827	2509300	15095124	0.375	0.121	0.879	
2828	2510217	15095880	0.375	0.121	0.879	
2829	2511247	15097252	0.375	0.121	0.879	
2830	2512463	15099024	0.371	0.129	0.879	
2831	2513510	15099564	0.371	0.129	0.879	
2832	2514183	15099116	0.375	0.141	0.883	
2833	2515190	15101124	0.375	0.141	0.883	
2834	2516102	15101752	0.375	0.141	0.883	
2835	2516565	15100868	0.379	0.137	0.879	
2836	2516681	15099944	0.379	0.137	0.879	
2837	2516797	15100060	0.395	0.141	0.871	
2838	2516869	15100000	0.395	0.141	0.871	
2839	2517130	15100828	0.395	0.141	0.871	
2840	2517308	15100756	0.398	0.145	0.867	
2841	2516951	15098792	0.398	0.145	0.867	
2842	2516612	15098508	0.395	0.152	0.883	
2843	2516671	15099760	0.395	0.152	0.883	
2844	2516803	15100112	0.395	0.152	0.883	
2845	2516932	15100232	0.383	0.160	0.875	
2846	2517349	15101512	0.383	0.160	0.875	
2847	2518073	15103160	0.383	0.160	0.879	
2848	2518332	15102024	0.383	0.160	0.879	
2849	2518810	15103156	0.383	0.160	0.879	
2850	2519486	15104428	0.383	0.156	0.887	
2851	2520188	15105208	0.383	0.156	0.887	
2852	2521003	15106360	0.383	0.156	0.887	
2853	2522012	15107952	0.375	0.148	0.883	
2854	2522606	15107300	0.375	0.148	0.883	
2855	2523066	15107360	0.367	0.148	0.883	
2856	2524235	15110656	0.367	0.148	0.883	
2857	2524342	15107576	0.367	0.141	0.863	
2858	2524911	15109532	0.367	0.141	0.863	
2859	2525772	15111268	0.367	0.141	0.863	
2860	2526798	15112788	0.367	0.137	0.867	
2861	2527082	15110848	0.367	0.137	0.867	
2862	2527429	15111384	0.375	0.145	0.879	
2863	2527701	15111432	0.375	0.145	0.879	
2864	2528401	15113416	0.375	0.145	0.879	
2865	2529559	15115948	0.371	0.160	0.883	
2866	2530570	15116516	0.371	0.160	0.883	
2867	2531537	15117352	0.371	0.160	0.883	
2868	2532838	15119656	0.387	0.156	0.871	
2869	2533605	15118820	0.387	0.156	0.871	
2870	2534331	15119424	0.391	0.160	0.863	
2871	2535079	15120236	0.391	0.160	0.863	
2872	2535801	15120880	0.391	0.160	0.863	
2873	2536359	15120948	0.395	0.152	0.871	
2874	2537275	15122936	0.395	0.152	0.871	
2875	2538063	15123340	0.398	0.160	0.867	
2876	2539272	15125812	0.398	0.160	0.867	
2877	2539962	15124944	0.398	0.160	0.867	
2878	2541041	15127192	0.395	0.152	0.867	
2879	2541951	15127596	0.395	0.152	0.867	
2880	2542837	15128408	0.402	0.148	0.875	
2881	2543699	15129200	0.402	0.148	0.875	
2882	2544877	15131324	0.402	0.148	0.875	
2883	2545700	15131084	0.406	0.145	0.867	
2884	2546496	15131796	0.406	0.145	0.867	
2885	2547104	15131840	0.410	0.129	0.867	
2886	2548073	15133892	0.410	0.129	0.867	
2887	2549074	15134992	0.410	0.129	0.867	
2888	2550032	15135820	0.406	0.121	0.871	
2889	2550966	15136680	0.406	0.121	0.871	
2890	2551783	15137148	0.398	0.137	0.891	
2891	2552472	15137452	0.398	0.137	0.891	
2892	2553570	15139776	0.398	0.137	0.891	
2893	2554323	15139496	0.402	0.141	0.883	
2894	2554554	15138160	0.402	0.141	0.883	
2895	2554855	15138672	0.402	0.141	0.879	
2896	2555482	15140276	0.402	0.141	0.879	
2897	2556128	15140980	0.402	0.141	0.879	
2898	2557307	15143756	0.398	0.141	0.875	
2899	2557075	15139292	0.398	0.141	0.875	
2900	2557852	15143096	0.406	0.141	0.863	
2901	2558803	15144568	0.406	0.141	0.863	
2902	2560756	15149528	0.406	0.141	0.863	
2903	2563165	15153304	0.414	0.141	0.863	
2904	2565765	15156480	0.414	0.141	0.863	
2905	2568122	15158108	0.441	0.125	0.855	
2906	2570490	15160508	0.441	0.125	0.855	
2907	2572913	15163096	0.441	0.125	0.855	
2908	2574972	15164064	0.426	0.109	0.863	
2909	2576909	15165632	0.426	0.109	0.863	
2910	2578741	15167152	0.426	0.105	0.848	
2911	2580348	15168084	0.426	0.105	0.848	
